time,angle
0.0,-5.00101324659222
0.016666666666666666,-5.06032463483773
0.03333333333333333,-5.11940898459246
0.05,-5.17993284874673
0.06666666666666667,-5.24508075406524
0.08333333333333333,-5.31201765733746
0.1,-5.37274881770437
0.11666666666666667,-5.43653704943045
0.13333333333333333,-5.49318004359173
0.15,-5.5055521427947
0.16666666666666666,-5.44687757848869
0.18333333333333332,-5.34460071321612
0.2,-5.24353742556814
0.21666666666666667,-5.13586068808104
0.23333333333333334,-5.02953069519968
0.25,-4.99305678679565
0.26666666666666666,-5.06888623752975
0.2833333333333333,-5.21466385183424
0.3,-5.37165767799676
0.31666666666666665,-5.54600032534815
0.3333333333333333,-5.73157824635989
0.35,-5.85119005960319
0.36666666666666664,-5.85404207544983
0.3833333333333333,-5.79076263837337
0.4,-5.736289704245
0.4166666666666667,-5.72503997213147
0.43333333333333335,-5.72275143333806
0.45,-5.70136248807499
0.4666666666666667,-5.63355559210045
0.48333333333333334,-5.54607255875374
0.5,-5.49372612383925
0.5166666666666666,-5.48531340195228
0.5333333333333333,-5.5145022721884
0.55,-5.6135450466298
0.5666666666666667,-5.78953815577812
0.5833333333333334,-6.03112556670879
0.6,-6.34401893130612
0.6166666666666667,-6.77732423101217
0.6333333333333333,-7.28416112189455
0.65,-7.72918858927125
0.6666666666666666,-8.0732855241454
0.6833333333333333,-8.35746067417653
0.7,-8.5636512156687
0.7166666666666667,-8.64020434797608
0.7333333333333333,-8.6347978578576
0.75,-8.67803665751786
0.7666666666666666,-8.84466328656197
0.7833333333333333,-9.06286273349475
0.8,-9.24382902800061
0.8166666666666667,-9.40680137026805
0.8333333333333334,-9.53090323729728
0.85,-9.4661919804442
0.8666666666666667,-9.10238278297299
0.8833333333333333,-8.5496421304117
0.9,-7.99079435709102
0.9166666666666666,-7.49000600527575
0.9333333333333333,-6.98520356987838
0.95,-6.47054283705805
0.9666666666666667,-5.91098617123968
0.9833333333333333,-5.33829085395207
1.0,-4.84978247442804
1.0166666666666666,-4.43566083941875
1.0333333333333332,-4.10957885418417
1.05,-4.00607542739089
1.0666666666666667,-4.27879457188856
1.0833333333333333,-4.77356671515847
1.1,-5.16215078832222
1.1166666666666667,-5.29497381020665
1.1333333333333333,-5.32096700929686
1.15,-5.35943698725609
1.1666666666666667,-5.47450921113778
1.1833333333333333,-5.60312773940454
1.2,-5.67409098627337
1.2166666666666666,-5.67130655427858
1.2333333333333334,-5.60976762673146
1.25,-5.46378298219885
1.2666666666666666,-5.21121434679485
1.2833333333333332,-4.87309292115974
1.3,-4.48936091959903
1.3166666666666667,-4.04411323909653
1.3333333333333333,-3.55371403604507
1.35,-3.10671921457567
1.3666666666666667,-2.74543551203617
1.3833333333333333,-2.42645677984652
1.4,-2.10996756750673
1.4166666666666667,-1.7727777531717
1.4333333333333333,-1.43826481287216
1.45,-1.13763097757851
1.4666666666666666,-0.891973843857619
1.4833333333333334,-0.681476967868309
1.5,-0.475865639513609
1.5166666666666666,-0.264484253486265
1.5333333333333332,-0.0575549218617182
1.55,0.14424844801456
1.5666666666666667,0.339059957826114
1.5833333333333333,0.528573349275379
1.6,0.717263985015875
1.6166666666666667,0.896225254922429
1.6333333333333333,1.07418506272902
1.65,1.28220427712506
1.6666666666666667,1.54441250695158
1.6833333333333333,1.8368266551867
1.7,2.1183661229833
1.7166666666666666,2.37028427371745
1.7333333333333334,2.61115632119762
1.75,2.85585608642601
1.7666666666666666,3.11887743360637
1.7833333333333332,3.38573177890105
1.8,3.62790731056545
1.8166666666666667,3.83508128249974
1.8333333333333333,4.01761640142288
1.8499999999999999,4.17805603815532
1.8666666666666667,4.313981013256
1.8833333333333333,4.4278535692009
1.9,4.52953184402156
1.9166666666666667,4.59356492322276
1.9333333333333333,4.64541314392195
1.95,4.77122806701014
1.9666666666666666,5.01234880670399
1.9833333333333334,5.32763644613243
2.0,5.67933581603702
2.0166666666666666,6.08111323567924
2.033333333333333,6.51916159054845
2.05,6.9141960154656
2.0666666666666664,7.22902780098404
2.0833333333333335,7.500617894825
2.1,7.76105177094813
2.1166666666666667,8.02630369819466
2.1333333333333333,8.28065565873012
2.15,8.50874996845901
2.1666666666666665,8.70110072533687
2.183333333333333,8.86714571631749
2.2,9.01979097187401
2.216666666666667,9.15559254298396
2.2333333333333334,9.27774119244396
2.25,9.40927461051653
2.2666666666666666,9.57626047295802
2.283333333333333,9.75298802453243
2.3,9.88478953811394
2.3166666666666664,9.94976631540245
2.3333333333333335,9.96953358149759
2.35,9.95463051474445
2.3666666666666667,9.86019874579654
2.3833333333333333,9.73128296560273
2.4,9.71337231794089
2.4166666666666665,9.8771831951651
2.433333333333333,10.1523112367532
2.45,10.4724435030101
2.466666666666667,10.8031155050078
2.4833333333333334,11.1780630517706
2.5,11.633751820219
2.5166666666666666,12.1905235285521
2.533333333333333,12.8290484671548
2.55,13.5270117844078
2.5666666666666664,14.2930826784075
2.5833333333333335,15.1189042892138
2.6,15.9564270196093
2.6166666666666667,16.7927817627444
2.6333333333333333,17.641174469224
2.65,18.4927767857505
2.6666666666666665,19.3433499177503
2.683333333333333,20.1978128401103
2.7,21.060840462068
2.716666666666667,21.9272018382896
2.7333333333333334,22.8018311407875
2.75,23.7040792391284
2.7666666666666666,24.6431450342114
2.783333333333333,25.6087788173961
2.8,26.5914939190613
2.8166666666666664,27.5905468687333
2.8333333333333335,28.6070873892699
2.85,29.6344185136373
2.8666666666666667,30.6672831267293
2.8833333333333333,31.7086799169785
2.9,32.7651554902438
2.9166666666666665,33.8450121579211
2.933333333333333,34.9416612786666
2.95,36.039606102473
2.966666666666667,37.1387017127475
2.9833333333333334,38.2354224295963
3.0,39.3100951805298
3.0166666666666666,40.3521300527806
3.033333333333333,41.3746790859438
3.05,42.3941784548413
3.0666666666666664,43.4188658780738
3.0833333333333335,44.4361467726317
3.1,45.4313014526345
3.1166666666666667,46.4006533595033
3.1333333333333333,47.3494602783281
3.15,48.277476794243
3.1666666666666665,49.1789533700235
3.183333333333333,50.0572497612115
3.2,50.9260884333717
3.216666666666667,51.7972495961678
3.2333333333333334,52.6605043102365
3.25,53.4977699867719
3.2666666666666666,54.3103329526673
3.283333333333333,55.0971271234093
3.3,55.8379522160345
3.3166666666666664,56.5272364626651
3.3333333333333335,57.173759202213
3.35,57.780061524516
3.3666666666666667,58.3435733314364
3.3833333333333333,58.8684318537305
3.4,59.3666698365882
3.4166666666666665,59.8314019823736
3.433333333333333,60.2690649273894
3.4499999999999997,60.7112138771972
3.466666666666667,61.1768444359043
3.4833333333333334,61.6463339689003
3.5,62.0932126087919
3.5166666666666666,62.5001984707363
3.533333333333333,62.8831338241576
3.55,63.2654076308778
3.5666666666666664,63.6504731051512
3.5833333333333335,64.0343154104912
3.6,64.4295890011894
3.6166666666666667,64.8461525113669
3.6333333333333333,65.2736978557587
3.65,65.6952054980255
3.6666666666666665,66.1044136627224
3.683333333333333,66.5083800426758
3.6999999999999997,66.9104549427841
3.716666666666667,67.311761361544
3.7333333333333334,67.712073554168
3.75,68.1124093291107
3.7666666666666666,68.510446975743
3.783333333333333,68.9086671479437
3.8,69.3151257359608
3.8166666666666664,69.7352224975803
3.8333333333333335,70.1641240386773
3.85,70.5945431549674
3.8666666666666667,71.026835445029
3.8833333333333333,71.4606467431043
3.9,71.8875373869049
3.9166666666666665,72.3090980366725
3.933333333333333,72.7238442246929
3.9499999999999997,73.1186595800951
3.966666666666667,73.4898164657239
3.9833333333333334,73.8409160037963
4.0,74.1697207834601
4.016666666666667,74.4771171094104
4.033333333333333,74.7621957264192
4.05,75.0200363318639
4.066666666666666,75.2372148881924
4.083333333333333,75.4272553260407
4.1,75.6255378975402
4.116666666666666,75.8581513721139
4.133333333333333,76.0988839179372
4.15,76.30463496591
4.166666666666667,76.4515673405986
4.183333333333334,76.5638283968348
4.2,76.6700230814999
4.216666666666667,76.7809375904819
4.233333333333333,76.885415687226
4.25,76.9789055864165
4.266666666666667,77.0617165005548
4.283333333333333,77.13359942967
4.3,77.1892430900783
4.316666666666666,77.2238993677366
4.333333333333333,77.2423403066769
4.35,77.2535289945961
4.366666666666666,77.264120107277
4.383333333333333,77.2674901094511
4.4,77.25267060057
4.416666666666667,77.2139098987772
4.433333333333334,77.1569525806807
4.45,77.0880701230038
4.466666666666667,77.0103849615323
4.483333333333333,76.920872215824
4.5,76.8164643035007
4.516666666666667,76.6884437401072
4.533333333333333,76.5454350672031
4.55,76.4102799958466
4.566666666666666,76.2970794851105
4.583333333333333,76.1917152104996
4.6,76.0746864233102
4.616666666666666,75.9320835005126
4.633333333333333,75.7778132406056
4.65,75.6341095653301
4.666666666666667,75.5135046710584
4.683333333333334,75.4035574458819
4.7,75.2889124041004
4.716666666666667,75.1584303373934
4.733333333333333,75.0230634453704
4.75,74.9005977308626
4.766666666666667,74.8007340064064
4.783333333333333,74.7139441268625
4.8,74.6292425033978
4.816666666666666,74.5419628692947
4.833333333333333,74.4567272090737
4.85,74.3764368629172
4.866666666666666,74.3070438521944
4.883333333333333,74.2426016537157
4.9,74.1681579125141
4.916666666666667,74.0731053206426
4.933333333333334,73.9681141885266
4.95,73.8700262433723
4.966666666666667,73.78717709889
4.983333333333333,73.7112125793906
5.0,73.6338020291993
5.016666666666667,73.5508853373774
5.033333333333333,73.4664915940325
5.05,73.3843548185242
5.066666666666666,73.3033243355476
5.083333333333333,73.2245659776274
5.1,73.1552608918025
5.116666666666666,73.0998650682722
5.133333333333333,73.0538661684296
5.15,73.0109896321787
5.166666666666667,72.9650965978353
5.183333333333334,72.9223400722718
5.2,72.8948969943675
5.216666666666667,72.8945493562248
5.233333333333333,72.909456734915
5.25,72.9164081496817
5.266666666666667,72.9049642854233
5.283333333333333,72.8856628506322
5.3,72.8667799612245
5.316666666666666,72.8554737738418
5.333333333333333,72.8445635261332
5.35,72.8207821710733
5.366666666666666,72.7774395964962
5.383333333333333,72.7212012085879
5.4,72.6588599931044
5.416666666666667,72.5860806211609
5.433333333333334,72.5072275851784
5.45,72.442156843665
5.466666666666667,72.4036473344404
5.483333333333333,72.3788881151875
5.5,72.3493535174003
5.516666666666667,72.3040601407264
5.533333333333333,72.2540186379533
5.55,72.2137089392971
5.566666666666666,72.1924542492033
5.583333333333333,72.1809167569062
5.6,72.1655864064293
5.616666666666666,72.1367207759883
5.633333333333333,72.1040696773708
5.65,72.0833622391382
5.666666666666667,72.0876560882348
5.683333333333334,72.1038512399314
5.7,72.1084472770251
5.716666666666667,72.0917547099647
5.733333333333333,72.0634761217466
5.75,72.0292249078469
5.766666666666667,71.9871410618132
5.783333333333333,71.9391138708972
5.8,71.8963523022266
5.816666666666666,71.8669151194444
5.833333333333333,71.8426903137435
5.85,71.8106284982047
5.866666666666666,71.7659686873887
5.883333333333333,71.7134997636168
5.9,71.6545445840696
5.916666666666667,71.5868868866823
5.933333333333334,71.5127698529856
5.95,71.4401980188453
5.966666666666667,71.3691708775488
5.983333333333333,71.2996976958996
6.0,71.2397807043978
6.016666666666667,71.1983290024211
6.033333333333333,71.1664415378419
6.05,71.1253553814309
6.066666666666666,71.0608915006569
6.083333333333333,70.987217657585
6.1,70.9280477159409
6.116666666666666,70.8979888902381
6.133333333333333,70.8824254626767
6.15,70.8612246305856
6.166666666666667,70.8189702972777
6.183333333333334,70.7710765752475
6.2,70.7436844939101
6.216666666666667,70.756854146495
6.233333333333333,70.7904544068493
6.25,70.8104586705755
6.266666666666667,70.7989420233204
6.283333333333333,70.7739000427982
6.3,70.7553079660381
6.316666666666666,70.7539322817975
6.333333333333333,70.7590002282837
6.35,70.758211956803
6.366666666666666,70.7441781523375
6.383333333333333,70.7243119982567
6.4,70.7085217583749
6.416666666666667,70.7023802666264
6.433333333333334,70.7003099308787
6.45,70.6954861981893
6.466666666666667,70.6845275000023
6.483333333333333,70.6708289136205
6.5,70.657703156987
6.516666666666667,70.6474418741356
6.533333333333333,70.6376838380294
6.55,70.6247327440811
6.566666666666666,70.6061534596727
6.583333333333333,70.5844000969564
6.6,70.5631240514304
6.616666666666666,70.5464598893845
6.633333333333333,70.530302795904
6.6499999999999995,70.5059044193048
6.666666666666667,70.4628209590757
6.683333333333334,70.4115071214275
6.7,70.3745354333966
6.716666666666667,70.3631232676254
6.733333333333333,70.366072387202
6.75,70.372296185965
6.766666666666667,70.3817457052253
6.783333333333333,70.3944310295671
6.8,70.3993481678509
6.816666666666666,70.3907810770741
6.833333333333333,70.3744573988594
6.85,70.3565642990013
6.866666666666666,70.3402113082725
6.883333333333333,70.3222907263116
6.8999999999999995,70.2996708817537
6.916666666666667,70.2720475439986
6.933333333333334,70.2397230559025
6.95,70.2004831348146
6.966666666666667,70.1465994183924
6.983333333333333,70.0858518358677
7.0,70.0392627058206
7.016666666666667,70.0200509697894
7.033333333333333,70.0149183472215
7.05,70.0051066522574
7.066666666666666,69.9803008260952
7.083333333333333,69.9508747171136
7.1,69.9291043051341
7.116666666666666,69.922912300496
7.133333333333333,69.9243362136031
7.1499999999999995,69.9217729223595
7.166666666666667,69.9098688358099
7.183333333333334,69.8939811649929
7.2,69.8785717167179
7.216666666666667,69.8652030301481
7.233333333333333,69.8523494992888
7.25,69.8397945470617
7.266666666666667,69.8298964856447
7.283333333333333,69.8202546531774
7.3,69.8034835813097
7.316666666666666,69.7767594405726
7.333333333333333,69.7429283417919
7.35,69.703114129143
7.366666666666666,69.6546580904845
7.383333333333333,69.6002098006777
7.3999999999999995,69.548849870101
7.416666666666667,69.5046990647316
7.433333333333334,69.463636846828
7.45,69.4223811034754
7.466666666666667,69.3784637517969
7.483333333333333,69.3343732102128
7.5,69.2942196187616
7.516666666666667,69.2619926666729
7.533333333333333,69.2336823392019
7.55,69.2013645954843
7.566666666666666,69.1603652710332
7.583333333333333,69.1153644249976
7.6,69.0724569263647
7.616666666666666,69.0336681469899
7.633333333333333,68.9969608187054
7.6499999999999995,68.9623374320856
7.666666666666667,68.932057235864
7.683333333333334,68.9038781086083
7.7,68.8710535128866
7.716666666666667,68.8303285458749
7.733333333333333,68.7849505268646
7.75,68.7379303934019
7.766666666666667,68.6913873353947
7.783333333333333,68.6432879176474
7.8,68.5903312155042
7.816666666666666,68.5277495812145
7.833333333333333,68.4602107982999
7.85,68.3985057953532
7.866666666666666,68.3464698730505
7.883333333333333,68.3002554030368
7.8999999999999995,68.2591579371418
7.916666666666667,68.2233126180291
7.933333333333334,68.1925990069198
7.95,68.1659243234491
7.966666666666667,68.1449669715471
7.983333333333333,68.1279729559517
8.0,68.1087456073959
8.016666666666666,68.0842770504261
8.033333333333333,68.0576666378001
8.05,68.0319254820064
8.066666666666666,68.0085214144296
8.083333333333334,67.9859142049566
8.1,67.9626216153758
8.116666666666667,67.9367110506909
8.133333333333333,67.9101609619332
8.15,67.8873960919404
8.166666666666666,67.8729753267935
8.183333333333334,67.8622865592784
8.2,67.8460163711198
8.216666666666667,67.8156981297074
8.233333333333333,67.7798886305248
8.25,67.754839158474
8.266666666666666,67.7497984481079
8.283333333333333,67.7555145979099
8.3,67.7604495512269
8.316666666666666,67.7615679961649
8.333333333333334,67.7618702653327
8.35,67.758883303417
8.366666666666667,67.7548241366288
8.383333333333333,67.7475230758952
8.4,67.7278859670245
8.416666666666666,67.6840248114156
8.433333333333334,67.6277176970792
8.45,67.5853777746665
8.466666666666667,67.5751064896231
8.483333333333333,67.5789654913957
8.5,67.5692565767156
8.516666666666666,67.5303357922393
8.533333333333333,67.4777510735284
8.55,67.4305115023915
8.566666666666666,67.3993972906584
8.583333333333334,67.3736653453306
8.6,67.3400518878019
8.616666666666667,67.2925114418444
8.633333333333333,67.2371474921574
8.65,67.1788486622633
8.666666666666666,67.1147555263317
8.683333333333334,67.0476008629407
8.7,66.9906418810368
8.716666666666667,66.9519760234133
8.733333333333333,66.9235648368817
8.75,66.8945026418494
8.766666666666666,66.8587359972882
8.783333333333333,66.8222989759793
8.8,66.7923806570612
8.816666666666666,66.7712379420034
8.833333333333334,66.7565531396623
8.85,66.7487169445745
8.866666666666667,66.7522081254879
8.883333333333333,66.7626186473057
8.9,66.7670686088269
8.916666666666666,66.7568311629907
8.933333333333334,66.7405862093639
8.95,66.7316101833108
8.966666666666667,66.7385446319099
8.983333333333333,66.75286311608
9.0,66.7620567546081
9.016666666666666,66.7603496665045
9.033333333333333,66.7534456677488
9.05,66.7459592209019
9.066666666666666,66.7338229106616
9.083333333333334,66.7211053475607
9.1,66.7246275227878
9.116666666666667,66.7581525880845
9.133333333333333,66.8078756273188
9.15,66.8493175731012
9.166666666666666,66.8703033486337
9.183333333333334,66.8830579577754
9.2,66.8997465905929
9.216666666666667,66.928032199638
9.233333333333333,66.960241515492
9.25,66.9855314719629
9.266666666666666,67.0018109232793
9.283333333333333,67.0111744837325
9.3,67.0090563605023
9.316666666666666,66.9876372035569
9.333333333333334,66.9547605626613
9.35,66.9293272711471
9.366666666666667,66.9230312169992
9.383333333333333,66.92412910976
9.4,66.9163794052937
9.416666666666666,66.8907665739108
9.433333333333334,66.8563155706308
9.45,66.823918794252
9.466666666666667,66.7983689121304
9.483333333333333,66.7749776115363
9.5,66.7504004289145
9.516666666666666,66.7213218542558
9.533333333333333,66.6910105213285
9.55,66.6659202501117
9.566666666666666,66.6507112257607
9.583333333333334,66.6406994140526
9.6,66.6282970699622
9.616666666666667,66.6083919899182
9.633333333333333,66.5860791716436
9.65,66.5690668701802
9.666666666666666,66.5636811142014
9.683333333333334,66.5635321920358
9.7,66.5572690241986
9.716666666666667,66.5380272947638
9.733333333333333,66.51268203462
9.75,66.4905809893462
9.766666666666666,66.4734370528705
9.783333333333333,66.459591671939
9.8,66.453323456776
9.816666666666666,66.4584431910381
9.833333333333334,66.4710203032669
9.85,66.4837946648137
9.866666666666667,66.4924074326077
9.883333333333333,66.5012985796094
9.9,66.5165011873017
9.916666666666666,66.5435712809315
9.933333333333334,66.577011709588
9.95,66.6062125207313
9.966666666666667,66.6342352937691
9.983333333333333,66.6579356105708
10.0,66.6573881940478
10.016666666666666,66.6121293303877
10.033333333333333,66.5426674293564
10.05,66.4905833350758
10.066666666666666,66.4748870063278
10.083333333333334,66.4765837280102
10.1,66.480259142584
10.116666666666667,66.481762527982
10.133333333333333,66.4852567489344
10.15,66.4878013060585
10.166666666666666,66.4892415641914
10.183333333333334,66.4897823916941
10.2,66.4869610304673
10.216666666666667,66.4757355327299
10.233333333333333,66.461047571975
10.25,66.4554037738383
10.266666666666666,66.4647416679129
10.283333333333333,66.4831728570124
10.3,66.5055212223645
10.316666666666666,66.5358191428601
10.333333333333334,66.5700135312763
10.35,66.5908108531489
10.366666666666667,66.58999239378
10.383333333333333,66.5757707009592
10.4,66.5555496729889
10.416666666666666,66.5301234651898
10.433333333333334,66.4986979245667
10.45,66.4663273906073
10.466666666666667,66.4335163197529
10.483333333333333,66.3997510896896
10.5,66.368579685311
10.516666666666666,66.3427580973516
10.533333333333333,66.3194948718514
10.55,66.2940688767382
10.566666666666666,66.2623712554664
10.583333333333334,66.228577520933
10.6,66.200432068631
10.616666666666667,66.1845681542343
10.633333333333333,66.1744568276578
10.65,66.1579682687542
10.666666666666666,66.1281231089321
10.683333333333334,66.0918022069473
10.7,66.0575270459169
