time,angle
0.0,5.65741849036963
0.016666666666666666,5.11357591948435
0.03333333333333333,4.5716376489355
0.05,4.07902087431341
0.06666666666666667,3.64549844891432
0.08333333333333333,3.26067348523982
0.1,2.93994049589366
0.11666666666666667,2.70622431970077
0.13333333333333333,2.53444266431299
0.15,2.36734273256988
0.16666666666666666,2.19223922319854
0.18333333333333332,2.02163705480009
0.2,1.83627035619585
0.21666666666666667,1.62422932482745
0.23333333333333334,1.39753740093155
0.25,1.17268859079945
0.26666666666666666,0.950896596610277
0.2833333333333333,0.730692337827992
0.3,0.524823213161888
0.31666666666666665,0.336354262767285
0.3333333333333333,0.162850003392807
0.35,0.00901176644481886
0.36666666666666664,-0.120855361368389
0.3833333333333333,-0.230906247412815
0.4,-0.329224575596792
0.4166666666666667,-0.419982597335883
0.43333333333333335,-0.49871629783594
0.45,-0.5605678153434
0.4666666666666667,-0.60054349838379
0.48333333333333334,-0.623555886114112
0.5,-0.639682717992141
0.5166666666666666,-0.649145513336296
0.5333333333333333,-0.651710686231783
0.55,-0.656785375431305
0.5666666666666667,-0.669128679142133
0.5833333333333334,-0.684041572293379
0.6,-0.696755751484325
0.6166666666666667,-0.705171966259355
0.6333333333333333,-0.711423848066826
0.65,-0.717077544043569
0.6666666666666666,-0.724708348558916
0.6833333333333333,-0.731771065910511
0.7,-0.73211377673945
0.7166666666666667,-0.722007885387601
0.7333333333333333,-0.705162679122441
0.75,-0.686555727208332
0.7666666666666666,-0.664662967110603
0.7833333333333333,-0.641008016898575
0.8,-0.625137262386329
0.8166666666666667,-0.620227548580329
0.8333333333333334,-0.623124303331409
0.85,-0.633867367550256
0.8666666666666667,-0.652967356025524
0.8833333333333333,-0.679896356274804
0.9,-0.713135223714003
0.9166666666666666,-0.755243255451875
0.9333333333333333,-0.803695042588175
0.95,-0.849362491926387
0.9666666666666667,-0.889509900860806
0.9833333333333333,-0.926912844800704
1.0,-0.960692935092806
1.0166666666666666,-0.987113943914973
1.0333333333333332,-1.0099150643657
1.05,-1.03940746842846
1.0666666666666667,-1.08082108839015
1.0833333333333333,-1.12891916567454
1.1,-1.178286226536
1.1166666666666667,-1.22393247774972
1.1333333333333333,-1.27078547525368
1.15,-1.32829358907437
1.1666666666666667,-1.40427094514733
1.1833333333333333,-1.49084864993979
1.2,-1.57400473143586
1.2166666666666666,-1.6497963806845
1.2333333333333334,-1.72221852191508
1.25,-1.78920568634192
1.2666666666666666,-1.85283818347388
1.2833333333333332,-1.91108036547073
1.3,-1.95569069930896
1.3166666666666667,-1.98450715310677
1.3333333333333333,-1.99972397432937
1.35,-1.99958732706877
1.3666666666666667,-1.97958563140799
1.3833333333333333,-1.94417176207933
1.4,-1.90501078969181
1.4166666666666667,-1.86338084471981
1.4333333333333333,-1.8180137534964
1.45,-1.77677356399637
1.4666666666666666,-1.74275377373957
1.4833333333333334,-1.71293569949162
1.5,-1.68598590955048
1.5166666666666666,-1.66261695919693
1.5333333333333332,-1.64212600500256
1.55,-1.62098583824449
1.5666666666666667,-1.59476143497451
1.5833333333333333,-1.5678406548495
1.6,-1.54989285741384
1.6166666666666667,-1.54512685423649
1.6333333333333333,-1.54928926222825
1.65,-1.55935862405886
1.6666666666666667,-1.57586403759926
1.6833333333333333,-1.59827587679426
1.7,-1.62199303715514
1.7166666666666666,-1.64640987263226
1.7333333333333334,-1.67214995194505
1.75,-1.69645100184946
1.7666666666666666,-1.71905071320284
1.7833333333333332,-1.74022132399604
1.8,-1.75799775196282
1.8166666666666667,-1.77074644986237
1.8333333333333333,-1.78012826375679
1.8499999999999999,-1.7890967128194
1.8666666666666667,-1.79743676858753
1.8833333333333333,-1.80533109213511
1.9,-1.81631044416641
1.9166666666666667,-1.83402051128021
1.9333333333333333,-1.85480735650273
1.95,-1.87126160985717
1.9666666666666666,-1.88221482952888
1.9833333333333334,-1.88883446396468
2.0,-1.88721981696814
2.0166666666666666,-1.87484873563907
2.033333333333333,-1.85424603157302
2.05,-1.8290832437649
2.0666666666666664,-1.7981167289306
2.0833333333333335,-1.76259335601802
2.1,-1.72990774338809
2.1166666666666667,-1.70330385447412
2.1333333333333333,-1.67951962736449
2.15,-1.65618347239458
2.1666666666666665,-1.63748585635602
2.183333333333333,-1.61923774647284
2.2,-1.58649137938136
2.216666666666667,-1.54026518162269
2.2333333333333334,-1.47952649489286
2.25,-1.38624211834196
2.2666666666666666,-1.28510680077637
2.283333333333333,-1.15147256841555
2.3,-0.893217969784226
2.3166666666666664,-0.497967248942453
2.3333333333333335,0.0222575672742988
2.35,0.722809207850137
2.3666666666666667,1.61421891866346
2.3833333333333333,2.68542690145632
2.4,3.95896411193616
2.4166666666666665,5.46814531803834
2.433333333333333,7.17853953248463
2.45,9.01133992526725
2.466666666666667,10.9502691429795
2.4833333333333334,13.0116950025452
2.5,15.1666621991596
2.5166666666666666,17.4212521787739
2.533333333333333,19.7703256696437
2.55,22.1682497112542
2.5666666666666664,24.6276222221647
2.5833333333333335,27.136987745372
2.6,29.6134860548779
2.6166666666666667,32.0375490924422
2.6333333333333333,34.4274479840201
2.65,36.7566161643833
2.6666666666666665,39.0226734054564
2.683333333333333,41.2285687479323
2.7,43.3562508062793
2.716666666666667,45.4104768384874
2.7333333333333334,47.3867956974565
2.75,49.2533856331445
2.7666666666666666,50.9872340312387
2.783333333333333,52.6118960315853
2.8,54.1653290168389
2.8166666666666664,55.6571962682697
2.8333333333333335,57.0780371399534
2.85,58.4368480997678
2.8666666666666667,59.7250063874927
2.8833333333333333,60.9509295518861
2.9,62.1491583290936
2.9166666666666665,63.3268461278312
2.933333333333333,64.4769767084798
2.95,65.6130347246281
2.966666666666667,66.7364518184193
2.9833333333333334,67.8459162478802
3.0,68.9508464290809
3.0166666666666666,70.0535921243701
3.033333333333333,71.1517868742092
3.05,72.247848300765
3.0666666666666664,73.3536608356179
3.0833333333333335,74.4574714802132
3.1,75.5262379693671
3.1166666666666667,76.5459181564521
3.1333333333333333,77.5304104131693
3.15,78.4885850236659
3.1666666666666665,79.4268463635607
3.183333333333333,80.3387878228626
3.2,81.214012478881
3.216666666666667,82.0457008645233
3.2333333333333334,82.8402360569506
3.25,83.6071935478069
3.2666666666666666,84.3448852903292
3.283333333333333,85.0552385062664
3.3,85.7535106850432
3.3166666666666664,86.439521512743
3.3333333333333335,87.1136532110729
3.35,87.791984759525
3.3666666666666667,88.4862712072224
3.3833333333333333,89.1849392250629
3.4,89.8688876663462
3.4166666666666665,90.5341498192601
3.433333333333333,91.1845202089525
3.4499999999999997,91.8122355735141
3.466666666666667,92.4090959186252
3.4833333333333334,92.9828275806884
3.5,93.5496287291906
3.5166666666666666,94.1139065637027
3.533333333333333,94.6713460943918
3.55,95.2252069982631
3.5666666666666664,95.7735405423915
3.5833333333333335,96.3182473901858
3.6,96.8683353863764
3.6166666666666667,97.4496170345027
3.6333333333333333,98.0362934724301
3.65,98.5599866735965
3.6666666666666665,99.0151542897291
3.683333333333333,99.4074413906522
3.6999999999999997,99.6849826826298
3.716666666666667,99.8544190265882
3.7333333333333334,99.908769980823
3.75,99.7754905865065
3.7666666666666666,99.415363284609
3.783333333333333,98.8677662751753
3.8,98.178133848898
3.8166666666666664,97.3508738823416
3.8333333333333335,96.3823582493313
3.85,95.3056687683825
3.8666666666666667,94.1546433690899
3.8833333333333333,92.8957910834066
3.9,91.4610699552584
3.9166666666666665,89.8216627152795
3.933333333333333,88.0073604653049
3.9499999999999997,86.0384346214152
3.966666666666667,83.9155257224229
3.9833333333333334,81.6391584960966
4.0,79.230477266546
4.016666666666667,76.6691142824553
4.033333333333333,73.9791040572296
4.05,71.2460671934685
4.066666666666666,68.4761751718293
4.083333333333333,65.659849999897
4.1,62.8566239504362
4.116666666666666,60.0477707508011
4.133333333333333,57.2509047112813
4.15,54.5795564102973
4.166666666666667,52.0865065791037
4.183333333333334,49.7158063636173
4.2,47.4182252354953
4.216666666666667,45.1811376863869
4.233333333333333,43.0166685223494
4.25,40.9152401394752
4.266666666666667,38.8824870994675
4.283333333333333,36.914312013229
4.3,34.9874154484749
4.316666666666666,33.0669074241361
4.333333333333333,31.1882684553
4.35,29.4334358113546
4.366666666666666,27.861173075455
4.383333333333333,26.4125005899476
4.4,24.9925604710394
4.416666666666667,23.5881295762902
4.433333333333334,22.2123848786011
4.45,20.8102426666284
4.466666666666667,19.350886667898
4.483333333333333,17.8654514808492
4.5,16.3918072022181
4.516666666666667,14.9279250932069
4.533333333333333,13.4755874737896
4.55,12.0787211486146
4.566666666666666,10.746757047573
4.583333333333333,9.47133694659418
4.6,8.27004956277118
4.616666666666666,7.15792123581757
4.633333333333333,6.1204691645859
4.65,5.13073903017923
4.666666666666667,4.17587252348628
4.683333333333334,3.26913827563847
4.7,2.42206924822038
4.716666666666667,1.64322666037983
4.733333333333333,0.92236886013535
4.75,0.242875539666615
4.766666666666667,-0.395333185226025
4.783333333333333,-0.992137304205397
4.8,-1.56304807427427
4.816666666666666,-2.09790742362141
4.833333333333333,-2.60682070044631
4.85,-3.13587760370366
4.866666666666666,-3.71959468258168
4.883333333333333,-4.32426387116171
4.9,-4.89393371413859
4.916666666666667,-5.41212769160194
4.933333333333334,-5.89608716512419
4.95,-6.33993008272607
4.966666666666667,-6.75150532062827
4.983333333333333,-7.1226907706672
5.0,-7.42343372215701
5.016666666666667,-7.63391189757015
5.033333333333333,-7.77404770725201
5.05,-7.87345695252304
5.066666666666666,-7.93275665890378
5.083333333333333,-7.95132663246963
5.1,-7.95692175309959
5.116666666666666,-7.9532254436936
5.133333333333333,-7.93654231954254
5.15,-7.92355685337274
5.166666666666667,-7.93061893892717
5.183333333333334,-7.94131708434524
5.2,-7.9231495508408
5.216666666666667,-7.90666299072602
5.233333333333333,-7.86113182584107
5.25,-7.66156835828874
5.266666666666667,-7.27770032788733
5.283333333333333,-6.73738352057368
5.3,-6.00235738820094
5.316666666666666,-5.06353152096147
5.333333333333333,-3.92741349516277
5.35,-2.58037378287612
5.366666666666666,-1.02024912149354
5.383333333333333,0.752251260129819
5.4,2.74350519125375
5.416666666666667,4.9905495144765
5.433333333333334,7.45392016703311
5.45,10.0230496188192
5.466666666666667,12.6921550107082
5.483333333333333,15.4648450821196
5.5,18.2459523991559
5.516666666666667,21.0295772809746
5.533333333333333,23.8237596005394
5.55,26.553778893257
5.566666666666666,29.1914316001259
5.583333333333333,31.7620331251989
5.6,34.2711042956726
5.616666666666666,36.7354228279531
5.633333333333333,39.1405685048749
5.65,41.4443114051262
5.666666666666667,43.6196424522041
5.683333333333334,45.6908242401758
5.7,47.6914388015769
5.716666666666667,49.6341906161389
5.733333333333333,51.5072777017252
5.75,53.3078440558821
5.766666666666667,55.0300983270852
5.783333333333333,56.6793428902794
5.8,58.2691003115732
5.816666666666666,59.7959048159899
5.833333333333333,61.2633182009451
5.85,62.6958312828036
5.866666666666666,64.1012370521226
5.883333333333333,65.4724589666313
5.9,66.8114628416613
5.916666666666667,68.1045517988954
5.933333333333334,69.364830617004
5.95,70.6344786189551
5.966666666666667,71.9272437779579
5.983333333333333,73.230268863929
6.0,74.5457589839032
6.016666666666667,75.8743461647939
6.033333333333333,77.2145184137819
6.05,78.5650873966989
6.066666666666666,79.9371542578617
6.083333333333333,81.3200217749589
6.1,82.679610667437
6.116666666666666,84.008710680705
6.133333333333333,85.3129367446053
6.15,86.5774687493312
6.166666666666667,87.7922955568342
6.183333333333334,88.9677286458505
6.2,90.1198026196882
6.216666666666667,91.2590300409864
6.233333333333333,92.3742907071947
6.25,93.4487986315823
6.266666666666667,94.4768181107056
6.283333333333333,95.4635325615763
6.3,96.4088950305156
6.316666666666666,97.3235067791024
6.333333333333333,98.1971883333719
6.35,98.9991302243511
6.366666666666666,99.7196652954398
6.383333333333333,100.369002515942
6.4,100.946238978744
6.416666666666667,101.451375618832
6.433333333333334,101.885001669135
6.45,102.24659544803
6.466666666666667,102.528011882982
6.483333333333333,102.736966834836
6.5,102.89637560326
6.516666666666667,103.016935800089
6.533333333333333,103.087907826083
6.55,103.100114719523
6.566666666666666,103.046410573445
6.583333333333333,102.933939222805
6.6,102.774957549875
6.616666666666666,102.565156805434
6.633333333333333,102.308874482563
6.6499999999999995,102.031372456982
6.666666666666667,101.744316805596
6.683333333333334,101.436267172132
6.7,101.097743378377
6.716666666666667,100.73455880285
6.733333333333333,100.340888329789
6.75,99.8895349232525
6.766666666666667,99.3696016195738
6.783333333333333,98.7916596559821
6.8,98.1607720019061
6.816666666666666,97.4989769908857
6.833333333333333,96.7843784886196
6.85,95.956467670046
6.866666666666666,94.9875321192531
6.883333333333333,93.9062077811901
6.8999999999999995,92.7357883551708
6.916666666666667,91.4857694767047
6.933333333333334,90.1454815833501
6.95,88.7078780564977
6.966666666666667,87.1635814757616
6.983333333333333,85.5243729126265
7.0,83.8136243963586
7.016666666666667,82.0373641406305
7.033333333333333,80.1866287754747
7.05,78.2615579925425
7.066666666666666,76.2628528878329
7.083333333333333,74.192497516067
7.1,72.0525745087208
7.116666666666666,69.8265615587048
7.133333333333333,67.5294720342626
7.1499999999999995,65.2101110748535
7.166666666666667,62.8758742383341
7.183333333333334,60.5213569495946
7.2,58.1756404250232
7.216666666666667,55.8240464858924
7.233333333333333,53.4792522767579
7.25,51.210414384058
7.266666666666667,49.0460911004664
7.283333333333333,46.957771690134
7.3,44.9293403293514
7.316666666666666,42.9404504789147
7.333333333333333,41.0111381507546
7.35,39.1857186854404
7.366666666666666,37.4914929558969
7.383333333333333,35.9010692010073
7.3999999999999995,34.3767891063202
7.416666666666667,32.9051609682609
7.433333333333334,31.499543526759
7.45,30.1626244596827
7.466666666666667,28.9256456807613
7.483333333333333,27.7573727046011
7.5,26.5668631046981
7.516666666666667,25.3281882064912
7.533333333333333,24.0672765606199
7.55,22.7709553740353
7.566666666666666,21.4297834131662
7.583333333333333,20.0527538789492
7.6,18.6546081391529
7.616666666666666,17.2213754239611
7.633333333333333,15.7672969902763
7.6499999999999995,14.3500378073396
7.666666666666667,12.9922313508176
7.683333333333334,11.6718090994903
7.7,10.3797222724414
7.716666666666667,9.1233586427258
7.733333333333333,7.89633079408615
7.75,6.66899762212849
7.766666666666667,5.42884022587803
7.783333333333333,4.18925173004136
7.8,2.95876785628905
7.816666666666666,1.74985076548351
7.833333333333333,0.549236743485349
7.85,-0.67421922577482
7.866666666666666,-1.94171688145981
7.883333333333333,-3.23423179716513
7.8999999999999995,-4.52290400489573
7.916666666666667,-5.83874376656531
7.933333333333334,-7.15324438637449
7.95,-8.34611485418448
7.966666666666667,-9.40811843348117
7.983333333333333,-10.346443541918
8.0,-11.0631020121758
8.016666666666666,-11.4673805803588
8.033333333333333,-11.6484718349824
8.05,-11.7788080741226
8.066666666666666,-11.9312785646932
8.083333333333334,-12.0335956498098
8.1,-12.0408963660188
8.116666666666667,-11.9339039119558
8.133333333333333,-11.731848106305
8.15,-11.4474224994186
8.166666666666666,-11.0742931863468
8.183333333333334,-10.6177065488474
8.2,-10.107135427923
8.216666666666667,-9.63409364855598
8.233333333333333,-9.10374594007074
8.25,-8.26682350094744
8.266666666666666,-7.00809751119917
8.283333333333333,-5.44252544255238
8.3,-3.66904661699868
8.316666666666666,-1.68033149847667
8.333333333333334,0.512501595376506
8.35,2.78309686740569
8.366666666666667,5.10727718279306
8.383333333333333,7.50976099979306
8.4,9.9393482420157
8.416666666666666,12.3905163021608
8.433333333333334,14.8686728727438
8.45,17.3386364619005
8.466666666666667,19.7918181960599
8.483333333333333,22.2358912212056
8.5,24.6601823360639
8.516666666666666,27.069212315147
8.533333333333333,29.4583736973525
8.55,31.8039067891989
8.566666666666666,34.1051299849391
8.583333333333334,36.3633779221087
8.6,38.5574493478963
8.616666666666667,40.6750320219158
8.633333333333333,42.7273581847699
8.65,44.7282155443062
8.666666666666666,46.6781113975353
8.683333333333334,48.5764541725246
8.7,50.4357241163872
8.716666666666667,52.2621704668483
8.733333333333333,54.0494238269887
8.75,55.791377100862
8.766666666666666,57.4798910853405
8.783333333333333,59.1237856164824
8.8,60.7424448141464
8.816666666666666,62.3443028791631
8.833333333333334,63.9208200437023
8.85,65.4658716569666
8.866666666666667,66.9730718817408
8.883333333333333,68.4494720439509
8.9,69.9089326744048
8.916666666666666,71.3616575856939
8.933333333333334,72.7968420981141
8.95,74.1963877369347
8.966666666666667,75.552815120054
8.983333333333333,76.8730835170062
9.0,78.1610999046281
9.016666666666666,79.4139998447732
9.033333333333333,80.6348096553309
9.05,81.8363446274858
9.066666666666666,83.0217126581844
9.083333333333334,84.1873869497533
9.1,85.3362522341041
9.116666666666667,86.4761384615772
9.133333333333333,87.599410791828
9.15,88.6856897065285
9.166666666666666,89.7286606489695
9.183333333333334,90.7341363872686
9.2,91.6998869133665
9.216666666666667,92.6242595142631
9.233333333333333,93.5090391415822
9.25,94.3572822444062
9.266666666666666,95.169271180711
9.283333333333333,95.9446183553907
9.3,96.685468165574
9.316666666666666,97.3901230925913
9.333333333333334,98.0608896576223
9.35,98.7054347089503
9.366666666666667,99.3260268282561
9.383333333333333,99.9195228886786
9.4,100.485197619288
9.416666666666666,101.026389978131
9.433333333333334,101.540101022715
9.45,102.016193763443
9.466666666666667,102.452774900716
9.483333333333333,102.851519816525
9.5,103.207542500591
9.516666666666666,103.521991308421
9.533333333333333,103.793825481505
9.55,104.014960758542
9.566666666666666,104.18066231958
9.583333333333334,104.295715766754
9.6,104.366315166917
9.616666666666667,104.383732055399
9.633333333333333,104.356694028139
9.65,104.317573677127
9.666666666666666,104.301037482018
9.683333333333334,104.272422546959
9.7,104.160087832722
9.716666666666667,103.943646577851
9.733333333333333,103.643377370325
9.75,103.248587461831
9.766666666666666,102.733761884666
9.783333333333333,102.124220534862
9.8,101.485641667231
9.816666666666666,100.841398405517
9.833333333333334,100.16900563484
9.85,99.4642514092345
9.866666666666667,98.7242544467751
9.883333333333333,97.9498119378626
9.9,97.1416901317263
9.916666666666666,96.306377080014
9.933333333333334,95.4378229637994
9.95,94.5190298889616
9.966666666666667,93.5507547860524
9.983333333333333,92.5332286659393
10.0,91.4486001155423
10.016666666666666,90.2966721197571
10.033333333333333,89.0779511454783
10.05,87.7755643795129
10.066666666666666,86.3679431840946
10.083333333333334,84.8778586306144
10.1,83.3549294173033
10.116666666666667,81.81217518674
10.133333333333333,80.2370737486965
10.15,78.6401280922016
10.166666666666666,77.0127222827745
10.183333333333334,75.3627897129105
10.2,73.7255106049094
10.216666666666667,72.1211732847945
10.233333333333333,70.5296113241708
10.25,68.9253842338456
10.266666666666666,67.2983070818658
10.283333333333333,65.6579872554597
10.3,64.0088955469226
10.316666666666666,62.360228277882
10.333333333333334,60.7030453498958
10.35,59.0149767050344
10.366666666666667,57.2884828626568
10.383333333333333,55.5310400256343
10.4,53.7425965727973
10.416666666666666,51.9299530807511
10.433333333333334,50.0855149997268
10.45,48.1877329609624
10.466666666666667,46.2175262557126
10.483333333333333,44.1937790781197
10.5,42.1521492570048
10.516666666666666,40.0979033814622
10.533333333333333,38.0255090051437
10.55,35.9546434217659
10.566666666666666,33.884700016542
10.583333333333334,31.8164534092243
10.6,29.7719648747794
10.616666666666667,27.7606032227692
