time,angle
0.0,-1.67844555899885
0.016666666666666666,-1.57724052532165
0.03333333333333333,-1.4759902821344
0.05,-1.37125663226056
0.06666666666666667,-1.27443833028252
0.08333333333333333,-1.17228338663177
0.1,-1.02400519832049
0.11666666666666667,-0.815852603148223
0.13333333333333333,-0.559840470396592
0.15,-0.253871112667156
0.16666666666666666,0.143384348561957
0.18333333333333332,0.593810287354262
0.2,0.9791841330382
0.21666666666666667,1.28137922295969
0.23333333333333334,1.51798831280474
0.25,1.62290661538343
0.26666666666666666,1.55680143368511
0.2833333333333333,1.35896086437848
0.3,1.0800600604102
0.31666666666666665,0.712622872947222
0.3333333333333333,0.260800773335355
0.35,-0.207018525963705
0.36666666666666664,-0.699965075786674
0.3833333333333333,-1.2087446760831
0.4,-1.6322024911276
0.4166666666666667,-1.9024631802443
0.43333333333333335,-2.07694484513036
0.45,-2.2464730099337
0.4666666666666667,-2.45444188032475
0.48333333333333334,-2.66573833663456
0.5,-2.8595772838842
0.5166666666666666,-3.01647928131424
0.5333333333333333,-3.15937349234197
0.55,-3.32794406153889
0.5666666666666667,-3.53207584546973
0.5833333333333334,-3.76193683445004
0.6,-4.02591304084486
0.6166666666666667,-4.33335733833971
0.6333333333333333,-4.67523686164794
0.65,-5.03264356950123
0.6666666666666666,-5.46419032434941
0.6833333333333333,-5.91245099930907
0.7,-6.18484955671387
0.7166666666666667,-6.2243159966461
0.7333333333333333,-6.08819469249013
0.75,-5.75526612909807
0.7666666666666666,-5.09692913940552
0.7833333333333333,-4.24275770124194
0.8,-3.55858111674254
0.8166666666666667,-3.20942657905563
0.8333333333333334,-3.03129645614314
0.85,-2.89457526944134
0.8666666666666667,-2.7730641921905
0.8833333333333333,-2.6906839356922
0.9,-2.5930246854409
0.9166666666666666,-2.46611497129067
0.9333333333333333,-2.3249788280464
0.95,-2.15961099398675
0.9666666666666667,-1.94775545300525
0.9833333333333333,-1.71104011973265
1.0,-1.5052615643566
1.0166666666666666,-1.34551548406583
1.0333333333333332,-1.21699688377902
1.05,-1.13093357875567
1.0666666666666667,-1.11447728181463
1.0833333333333333,-1.14056594636339
1.1,-1.13853749319785
1.1166666666666667,-1.08041330110971
1.1333333333333333,-0.992524121338614
1.15,-0.885965301660918
1.1666666666666667,-0.765168449142785
1.1833333333333333,-0.626846566228472
1.2,-0.470918723804686
1.2166666666666666,-0.302477484892397
1.2333333333333334,-0.118172314288222
1.25,0.0973322643741003
1.2666666666666666,0.364833239669449
1.2833333333333332,0.665849395441037
1.3,0.958535777607632
1.3166666666666667,1.24357424148833
1.3333333333333333,1.52036717993203
1.35,1.7440406850482
1.3666666666666667,1.89282266851992
1.3833333333333333,1.98812330395405
1.4,2.04990883735646
1.4166666666666667,2.08160859801676
1.4333333333333333,2.07995104543598
1.45,2.0549902536874
1.4666666666666666,2.00227516964373
1.4833333333333334,1.9260931652756
1.5,1.85012852960934
1.5166666666666666,1.77067997528064
1.5333333333333332,1.69194526291482
1.55,1.64952399188548
1.5666666666666667,1.68675011619485
1.5833333333333333,1.76000393125561
1.6,1.77404393716074
1.6166666666666667,1.67388927098358
1.6333333333333333,1.51351164463681
1.65,1.36155223663437
1.6666666666666667,1.23000982443367
1.6833333333333333,1.10705265887506
1.7,1.02643780027259
1.7166666666666666,1.00870318678188
1.7333333333333334,1.03355811996345
1.75,1.07375391733637
1.7666666666666666,1.13406504809903
1.7833333333333332,1.20985460844059
1.8,1.25976738215398
1.8166666666666667,1.25628366274252
1.8333333333333333,1.22627479769556
1.8499999999999999,1.21057401504229
1.8666666666666667,1.23650262431496
1.8833333333333333,1.27716767579132
1.9,1.29284773956504
1.9166666666666667,1.26041439848584
1.9333333333333333,1.20299039853597
1.95,1.1504963165694
1.9666666666666666,1.10715791159864
1.9833333333333334,1.06897781693034
2.0,1.05372840805086
2.0166666666666666,1.07733021665385
2.033333333333333,1.12408692514549
2.05,1.16425584933662
2.0666666666666664,1.18752278155129
2.0833333333333335,1.20423860923099
2.1,1.21551904402315
2.1166666666666667,1.21934598318241
2.1333333333333333,1.21760202785598
2.15,1.21724329221465
2.1666666666666665,1.21228865031891
2.183333333333333,1.20866547417091
2.2,1.23130874921055
2.216666666666667,1.28531467754561
2.2333333333333334,1.36561495838667
2.25,1.48196773887036
2.2666666666666666,1.65306457177196
2.283333333333333,1.86031575183948
2.3,2.05753394439697
2.3166666666666664,2.22400429958722
2.3333333333333335,2.38040798492009
2.35,2.54255603804986
2.3666666666666667,2.71899235980419
2.3833333333333333,2.90104897131152
2.4,3.07866148371604
2.4166666666666665,3.25281223242611
2.433333333333333,3.42235133162404
2.45,3.57397696511375
2.466666666666667,3.70983997095631
2.4833333333333334,3.82753243924986
2.5,3.90721893551902
2.5166666666666666,3.943414067634
2.533333333333333,3.94198119611252
2.55,3.90032217832064
2.5666666666666664,3.80694186260649
2.5833333333333335,3.67337901964209
2.6,3.53153233098091
2.6166666666666667,3.38503134676841
2.6333333333333333,3.2301306064669
2.65,3.08780121669543
2.6666666666666665,2.96460963179207
2.683333333333333,2.85419576821105
2.7,2.75822460185954
2.716666666666667,2.6762537777625
2.7333333333333334,2.60871824553715
2.75,2.55850392973957
2.7666666666666666,2.54070262079007
2.783333333333333,2.54014771446539
2.8,2.51435833484439
2.8166666666666664,2.43646195450783
2.8333333333333335,2.33337086538278
2.85,2.24329817465573
2.8666666666666667,2.18393214717085
2.8833333333333333,2.13754219520009
2.9,2.08919724556721
2.9166666666666665,2.02219788261645
2.933333333333333,1.95327368674349
2.95,1.91760827253622
2.966666666666667,1.94179047912358
2.9833333333333334,1.99915664102049
3.0,2.04500332178325
3.0166666666666666,2.06364351470952
3.033333333333333,2.07078625569798
3.05,2.06887334454336
3.0666666666666664,2.0519735063597
3.0833333333333335,2.02610805092707
3.1,2.0116076046419
3.1166666666666667,2.0206589257219
3.1333333333333333,2.04103360447245
3.15,2.056377790306
3.1666666666666665,2.05852357281735
3.183333333333333,2.05561814612285
3.2,2.05577726912363
3.216666666666667,2.06483989124782
3.2333333333333334,2.07690760307331
3.25,2.08254512043921
3.2666666666666666,2.0793065999861
3.283333333333333,2.06969680141439
3.3,2.05175785890241
3.3166666666666664,2.01799345357524
3.3333333333333335,1.97593997886949
3.35,1.94613926537434
3.3666666666666667,1.9467310364874
3.3833333333333333,1.959500170373
3.4,1.95047302552131
3.4166666666666665,1.90850511705744
3.433333333333333,1.84475976183704
3.4499999999999997,1.75877510473524
3.466666666666667,1.64751124585305
3.4833333333333334,1.51401037508568
3.5,1.36693071009479
3.5166666666666666,1.21128295408274
3.533333333333333,1.04199051565413
3.55,0.852590502191208
3.5666666666666664,0.624954363802478
3.5833333333333335,0.377242279631908
3.6,0.157504072585899
3.6166666666666667,-0.00886825576997808
3.6333333333333333,-0.147186559698908
3.65,-0.285461444505457
3.6666666666666665,-0.427129460451819
3.683333333333333,-0.568840833275062
3.6999999999999997,-0.728466984370593
3.716666666666667,-0.922342563392772
3.7333333333333334,-1.13425498166051
3.75,-1.33314897561566
3.7666666666666666,-1.5119411817404
3.783333333333333,-1.67759201425656
3.8,-1.82008580407084
3.8166666666666664,-1.9368124666065
3.8333333333333335,-2.03047384112946
3.85,-2.09897799575431
3.8666666666666667,-2.13603637225233
3.8833333333333333,-2.14780658107163
3.9,-2.15081749559071
3.9166666666666665,-2.14550916891111
3.933333333333333,-2.13146188032989
3.9499999999999997,-2.12393129726629
3.966666666666667,-2.13090132200941
3.9833333333333334,-2.14437318714699
4.0,-2.15563654693226
4.016666666666667,-2.15716287453375
4.033333333333333,-2.15654314600664
4.05,-2.16773014724835
4.066666666666666,-2.19627056685014
4.083333333333333,-2.23658744950156
4.1,-2.28592607798855
4.116666666666666,-2.34474217602432
4.133333333333333,-2.41262516591629
4.15,-2.4854834005449
4.166666666666667,-2.5645072218019
4.183333333333334,-2.64841958225075
4.2,-2.72941696568548
4.216666666666667,-2.81132997089975
4.233333333333333,-2.89047958132705
4.25,-2.94766143473221
4.266666666666667,-2.96651737519636
4.283333333333333,-2.96326714990938
4.3,-2.96740493927286
4.316666666666666,-2.99245242504423
4.333333333333333,-3.02488368159951
4.35,-3.05358152662812
4.366666666666666,-3.07553714764561
4.383333333333333,-3.09374023559702
4.4,-3.10606448366732
4.416666666666667,-3.10823364279903
4.433333333333334,-3.10452765057567
4.45,-3.10566484412329
4.466666666666667,-3.11439826560156
4.483333333333333,-3.127985670613
4.5,-3.14890323895132
4.516666666666667,-3.18207016788282
4.533333333333333,-3.22256230195297
4.55,-3.25808772050083
4.566666666666666,-3.28190504308343
4.583333333333333,-3.30075623981035
4.6,-3.32257604839617
4.616666666666666,-3.35161764279188
4.633333333333333,-3.38362851782685
4.65,-3.41378782675916
4.666666666666667,-3.44010563069561
4.683333333333334,-3.46457589352198
4.7,-3.48835509282227
4.716666666666667,-3.50984683915654
4.733333333333333,-3.53065005692731
4.75,-3.55671947264838
4.766666666666667,-3.59326883060064
4.783333333333333,-3.63507772003831
4.8,-3.67246926948773
4.816666666666666,-3.69922935812628
4.833333333333333,-3.72159522162731
4.85,-3.74857294833114
4.866666666666666,-3.78105110351088
4.883333333333333,-3.81811362235484
4.9,-3.86606544410081
4.916666666666667,-3.93322474669056
4.933333333333334,-4.01132205995857
4.95,-4.08176698133016
4.966666666666667,-4.13884867692116
4.983333333333333,-4.18824683115705
5.0,-4.22842163467443
5.016666666666667,-4.2553546013981
5.033333333333333,-4.27305811188245
5.05,-4.29204461959495
5.066666666666666,-4.31762081072596
5.083333333333333,-4.34447837842929
5.1,-4.3672087620294
5.116666666666666,-4.38341854458259
5.133333333333333,-4.39549851376925
5.15,-4.40521765663926
5.166666666666667,-4.42903277497086
5.183333333333334,-4.45048663626025
5.2,-4.42198617768759
5.216666666666667,-4.41419540205786
5.233333333333333,-4.35643939102669
5.25,-3.98906661651048
5.266666666666667,-3.15349818526547
5.283333333333333,-2.00873549768343
5.3,-0.772549909290729
5.316666666666666,0.515054644408991
5.333333333333333,1.88962697794781
5.35,3.24883385658572
5.366666666666666,4.52620865850346
5.383333333333333,5.79407477842902
5.4,7.15791171052108
5.416666666666667,8.6840152005433
5.433333333333334,10.3019231087792
5.45,11.9091945308604
5.466666666666667,13.4647253781481
5.483333333333333,15.0114400373118
5.5,16.5743619284592
5.516666666666667,18.1709248841759
5.533333333333333,19.783859149484
5.55,21.3858731674914
5.566666666666666,22.9762116200858
5.583333333333333,24.5564829910698
5.6,26.1031047619939
5.616666666666666,27.5979789988826
5.633333333333333,29.0598242663652
5.65,30.5203530064667
5.666666666666667,31.9995339615427
5.683333333333334,33.4784154615264
5.7,34.9298760281557
5.716666666666667,36.3455982293517
5.733333333333333,37.733447621602
5.75,39.0902015464095
5.766666666666667,40.4185875875889
5.783333333333333,41.7161556432893
5.8,42.9719438365953
5.816666666666666,44.1828448218781
5.833333333333333,45.3519214586624
5.85,46.4773980684758
5.866666666666666,47.5536801578976
5.883333333333333,48.586784797214
5.9,49.5924767322562
5.916666666666667,50.5757102576545
5.933333333333334,51.532267717648
5.95,52.4637545500725
5.966666666666667,53.360492994743
5.983333333333333,54.2319477267598
6.0,55.1081160744811
6.016666666666667,56.003849763876
6.033333333333333,56.9044826014562
6.05,57.7956675240657
6.066666666666666,58.6706637263282
6.083333333333333,59.5358967339156
6.1,60.3966627523202
6.116666666666666,61.2455929121333
6.133333333333333,62.0898624566424
6.15,62.9569539856532
6.166666666666667,63.862526532506
6.183333333333334,64.7915524983685
6.2,65.7257355260987
6.216666666666667,66.6575935961807
6.233333333333333,67.5950749468419
6.25,68.5429421010349
6.266666666666667,69.5076076724732
6.283333333333333,70.4832251891285
6.3,71.4559163821454
6.316666666666666,72.4217056498913
6.333333333333333,73.3845458917682
6.35,74.3422036756413
6.366666666666666,75.3028467274373
6.383333333333333,76.2580769873872
6.4,77.1811367573061
6.416666666666667,78.0580538318036
6.433333333333334,78.9036302233055
6.45,79.7340362091639
6.466666666666667,80.5560690495337
6.483333333333333,81.3620290761996
6.5,82.1459228960414
6.516666666666667,82.8977835058817
6.533333333333333,83.6275034645717
6.55,84.3588911265313
6.566666666666666,85.1031298935524
6.583333333333333,85.8482407149008
6.6,86.5833995406652
6.616666666666666,87.3025129149148
6.633333333333333,88.0119170224185
6.6499999999999995,88.7193485273372
6.666666666666667,89.433788994872
6.683333333333334,90.1452787563276
6.7,90.8333499062254
6.716666666666667,91.4914875307571
6.733333333333333,92.1271168519423
6.75,92.7406634980988
6.766666666666667,93.3273340177194
6.783333333333333,93.8911616877797
6.8,94.4457244924591
6.816666666666666,95.0006621445312
6.833333333333333,95.5473107091171
6.85,96.0717785305942
6.866666666666666,96.5669274217329
6.883333333333333,97.0395496965304
6.8999999999999995,97.4957929787592
6.916666666666667,97.946680260542
6.933333333333334,98.380354904925
6.95,98.7684599496168
6.966666666666667,99.1050141212202
6.983333333333333,99.3956115895224
7.0,99.62931890643
7.016666666666667,99.7879504307433
7.033333333333333,99.8894506773971
7.05,99.977116945841
7.066666666666666,100.063928872515
7.083333333333333,100.136851961107
7.1,100.200202874954
7.116666666666666,100.259103160373
7.133333333333333,100.308448133352
7.1499999999999995,100.337271831297
7.166666666666667,100.337297731206
7.183333333333334,100.316847126415
7.2,100.289835082183
7.216666666666667,100.254827701865
7.233333333333333,100.213264246783
7.25,100.18332118575
7.266666666666667,100.170608310804
7.283333333333333,100.169488836846
7.3,100.181238398279
7.316666666666666,100.207813079303
7.333333333333333,100.247269301712
7.35,100.295041625261
7.366666666666666,100.357157028973
7.383333333333333,100.427600438585
7.3999999999999995,100.483735892528
7.416666666666667,100.518657961092
7.433333333333334,100.539278836911
7.45,100.543657586321
7.466666666666667,100.525453839505
7.483333333333333,100.491001920085
7.5,100.457363660852
7.516666666666667,100.42725782294
7.533333333333333,100.39803782764
7.55,100.37863535077
7.566666666666666,100.37400408722
7.583333333333333,100.379111643778
7.6,100.387845215784
7.616666666666666,100.401047682824
7.633333333333333,100.417869617224
7.6499999999999995,100.429671441719
7.666666666666667,100.435921698677
7.683333333333334,100.437164384875
7.7,100.426371796856
7.716666666666667,100.397639461893
7.733333333333333,100.356874830433
7.75,100.314774510021
7.766666666666667,100.271214571425
7.783333333333333,100.226371492873
7.8,100.191362718509
7.816666666666666,100.172789891289
7.833333333333333,100.164002686545
7.85,100.156213782822
7.866666666666666,100.147114355206
7.883333333333333,100.139023847084
7.8999999999999995,100.130099629154
7.916666666666667,100.120818538105
7.933333333333334,100.110676128424
7.95,100.096365118966
7.966666666666667,100.076470352845
7.983333333333333,100.05245067761
8.0,100.025321638347
8.016666666666666,99.9930532455113
8.033333333333333,99.9577036616916
8.05,99.9263717373103
8.066666666666666,99.9037575322312
8.083333333333334,99.8851121385059
8.1,99.8633397318142
8.116666666666667,99.8355737607099
8.133333333333333,99.8046737912031
8.15,99.7721446201515
8.166666666666666,99.7378657121407
8.183333333333334,99.7019445094493
8.2,99.6662453419342
8.216666666666667,99.6323238314242
8.233333333333333,99.5986792410574
8.25,99.5625689435813
8.266666666666666,99.5226336224168
8.283333333333333,99.4801757649973
8.3,99.4364412956892
8.316666666666666,99.3914082887935
8.333333333333334,99.3451980549485
8.35,99.2992255945448
8.366666666666667,99.2525684756667
8.383333333333333,99.2060499649676
8.4,99.1636496651301
8.416666666666666,99.1281585366668
8.433333333333334,99.0968172249292
8.45,99.0652813205427
8.466666666666667,99.0300357365767
8.483333333333333,98.994559574249
8.5,98.9649893840463
8.516666666666666,98.9441085478297
8.533333333333333,98.9291474081753
8.55,98.9179240447914
8.566666666666666,98.9130544413129
8.583333333333334,98.9119298114856
8.6,98.9045233919353
8.616666666666667,98.8842322625316
8.633333333333333,98.8576541447823
8.65,98.834559708585
8.666666666666666,98.817540551473
8.683333333333334,98.8040033936752
8.7,98.7959387374028
8.716666666666667,98.7970546102232
8.733333333333333,98.8036320017097
8.75,98.806521342922
8.766666666666666,98.8018930337096
8.783333333333333,98.7935726581983
8.8,98.7839020783154
8.816666666666666,98.7728635214676
8.833333333333334,98.7604851217414
8.85,98.7491840753025
8.866666666666667,98.7406297280782
8.883333333333333,98.7331636352607
8.9,98.724188313934
8.916666666666666,98.7099693352942
8.933333333333334,98.694224229256
8.95,98.6855134080833
8.966666666666667,98.6902388018002
8.983333333333333,98.7019989803591
9.0,98.7101349545373
9.016666666666666,98.7082996605732
9.033333333333333,98.7028404593173
9.05,98.7021310201414
9.066666666666666,98.7125734091875
9.083333333333334,98.7277664197695
9.1,98.7368669991363
9.116666666666667,98.7352218846035
9.133333333333333,98.7274827748375
9.15,98.7167580383434
9.166666666666666,98.7017563716516
9.183333333333334,98.6837684829466
9.2,98.6697705201884
9.216666666666667,98.6634974046273
9.233333333333333,98.6612115092977
9.25,98.6586813163899
9.266666666666666,98.6542419691557
9.283333333333333,98.6495642767109
9.3,98.6454163452532
9.316666666666666,98.6430267300577
9.333333333333334,98.6411625713855
9.35,98.6368925491617
9.366666666666667,98.6274268817834
9.383333333333333,98.6155540197973
9.4,98.6067075401561
9.416666666666666,98.6054096707983
9.433333333333334,98.6071444858956
9.45,98.603782572674
9.466666666666667,98.5891914564311
9.483333333333333,98.5694970028738
9.5,98.5549549186656
9.516666666666666,98.5516375870739
9.533333333333333,98.5534848130416
9.55,98.5525492679418
9.566666666666666,98.5465102989476
9.583333333333334,98.5376780387015
9.6,98.5250442334622
9.616666666666667,98.5055839352981
9.633333333333333,98.4823214994751
9.65,98.4633265952423
9.666666666666666,98.451785357724
9.683333333333334,98.4445185972998
9.7,98.4400423199637
9.716666666666667,98.439769835915
9.733333333333333,98.4422805142624
9.75,98.4418342969737
9.766666666666666,98.4361754133197
9.783333333333333,98.4275704612455
9.8,98.4170508867831
9.816666666666666,98.4048714563182
9.833333333333334,98.3907663550107
9.85,98.3749738843151
9.866666666666667,98.3552921025755
9.883333333333333,98.3339316067672
9.9,98.3177358291593
9.916666666666666,98.3108325926591
9.933333333333334,98.3090894551507
9.95,98.3069403595354
9.966666666666667,98.3032577215292
9.983333333333333,98.2991685276298
10.0,98.2924757159386
10.016666666666666,98.2804987503225
10.033333333333333,98.2659152936161
10.05,98.2545591390265
10.066666666666666,98.2507502259432
10.083333333333334,98.2502050299464
10.1,98.2457955338597
10.116666666666667,98.2333370214932
10.133333333333333,98.2170001243576
10.15,98.2021070245827
10.166666666666666,98.1926101274555
10.183333333333334,98.184531974031
10.2,98.1712617700487
10.216666666666667,98.1505512627362
10.233333333333333,98.124660813086
10.25,98.0937337936052
10.266666666666666,98.0544480093652
10.283333333333333,98.0101003628079
10.3,97.9707675583669
10.316666666666666,97.939304445107
10.333333333333334,97.9128879630436
10.35,97.8930720018557
10.366666666666667,97.8834499731452
10.383333333333333,97.8804125011078
10.4,97.8746868515345
10.416666666666666,97.8639014920393
10.433333333333334,97.8504324646667
10.45,97.8321306649436
10.466666666666667,97.8053694788563
10.483333333333333,97.7738127751163
10.5,97.746209505896
10.516666666666666,97.7271654476854
10.533333333333333,97.7120299554387
10.55,97.6956410248201
10.566666666666666,97.6768454048451
10.583333333333334,97.6567992667613
10.6,97.6338176015772
10.616666666666667,97.6050901685611
10.633333333333333,97.573429631523
10.65,97.5455871819949
