time,angle
0.0,-0.3279043977331
0.016666666666666666,-0.392354745758342
0.03333333333333333,-0.45685960143315
0.05,-0.510212663469272
0.06666666666666667,-0.547564572489677
0.08333333333333333,-0.573742506764861
0.1,-0.592044297034106
0.11666666666666667,-0.599212903399278
0.13333333333333333,-0.598461096774468
0.15,-0.602847434869723
0.16666666666666666,-0.617894042183346
0.18333333333333332,-0.638149745740882
0.2,-0.660286904772303
0.21666666666666667,-0.678024175821306
0.23333333333333334,-0.697641952660753
0.25,-0.734840140445022
0.26666666666666666,-0.808602940348014
0.2833333333333333,-0.900583827930865
0.3,-0.970107474543707
0.31666666666666665,-1.00671118876406
0.3333333333333333,-1.01980579569059
0.35,-0.998113872871836
0.36666666666666664,-0.904814401030669
0.3833333333333333,-0.775672960830295
0.4,-0.709712459349742
0.4166666666666667,-0.718735167707664
0.43333333333333335,-0.792913973552532
0.45,-0.999138753678621
0.4666666666666667,-1.42214471481264
0.48333333333333334,-1.97161597458726
0.5,-2.45437218895415
0.5166666666666666,-2.8121878227964
0.5333333333333333,-3.10639574563793
0.55,-3.32694002645194
0.5666666666666667,-3.45774165972663
0.5833333333333334,-3.51549179906112
0.6,-3.53726860949875
0.6166666666666667,-3.51746889422321
0.6333333333333333,-3.46059549797894
0.65,-3.41705972493396
0.6666666666666666,-3.42556997838072
0.6833333333333333,-3.44832127372254
0.7,-3.41989087706995
0.7166666666666667,-3.28363298290287
0.7333333333333333,-3.09591748348155
0.75,-2.95988570424262
0.7666666666666666,-2.96048699421449
0.7833333333333333,-3.01414562398545
0.8,-2.97095916341577
0.8166666666666667,-2.76772304761995
0.8333333333333334,-2.46828023432768
0.85,-2.11268233595144
0.8666666666666667,-1.57959141466895
0.8833333333333333,-0.990377812846669
0.9,-0.748962886025743
0.9166666666666666,-1.18841336668515
0.9333333333333333,-1.97757567204132
0.95,-2.52086272065665
0.9666666666666667,-2.55302073493738
0.9833333333333333,-2.33876883875673
1.0,-2.07500158084853
1.0166666666666666,-1.8026456716609
1.0333333333333332,-1.48226679272022
1.05,-1.18783162844872
1.0666666666666667,-0.906109173352283
1.0833333333333333,-0.651032132990528
1.1,-0.531428607563502
1.1166666666666667,-0.650635497711707
1.1333333333333333,-0.899528662348445
1.15,-1.06565966451779
1.1666666666666667,-1.05732850716116
1.1833333333333333,-0.970514781693164
1.2,-0.872829334351378
1.2166666666666666,-0.766241631387616
1.2333333333333334,-0.64875136002624
1.25,-0.577462015545129
1.2666666666666666,-0.581925061331287
1.2833333333333332,-0.629340249819387
1.3,-0.683551913828033
1.3166666666666667,-0.740392292061436
1.3333333333333333,-0.806305644495461
1.35,-0.861598280211954
1.3666666666666667,-0.911383203007709
1.3833333333333333,-0.95001047886843
1.4,-0.940686807568898
1.4166666666666667,-0.87642051352506
1.4333333333333333,-0.763838239902652
1.45,-0.586873481409404
1.4666666666666666,-0.320679269484296
1.4833333333333334,0.00952437862726721
1.5,0.344501541797337
1.5166666666666666,0.684225005455394
1.5333333333333332,1.02875986562312
1.55,1.31932682817097
1.5666666666666667,1.54216680213693
1.5833333333333333,1.71152865176283
1.6,1.81063901741126
1.6166666666666667,1.82702164535309
1.6333333333333333,1.77328660227446
1.65,1.6703244434606
1.6666666666666667,1.52227647591885
1.6833333333333333,1.32535511729751
1.7,1.08863765593287
1.7166666666666666,0.783625425799709
1.7333333333333334,0.439125824339197
1.75,0.150009301719421
1.7666666666666666,-0.0318844331619333
1.7833333333333332,-0.158728960348052
1.8,-0.291934719181668
1.8166666666666667,-0.464326569172377
1.8333333333333333,-0.643617220848718
1.8499999999999999,-0.793246715987562
1.8666666666666667,-0.891248108437752
1.8833333333333333,-0.959645462444966
1.9,-1.02739902157439
1.9166666666666667,-1.11515492499184
1.9333333333333333,-1.20348780609594
1.95,-1.26023868341792
1.9666666666666666,-1.26092427551518
1.9833333333333334,-1.22949126907119
2.0,-1.20521675852722
2.0166666666666666,-1.20457331541448
2.033333333333333,-1.21088781954394
2.05,-1.21380829508425
2.0666666666666664,-1.21174058875695
2.0833333333333335,-1.20649806837459
2.1,-1.19285156619001
2.1166666666666667,-1.16995370908841
2.1333333333333333,-1.13849531024757
2.15,-1.09533889767554
2.1666666666666665,-1.03047231487903
2.183333333333333,-0.95365891873945
2.2,-0.891386961976244
2.216666666666667,-0.847749530110008
2.2333333333333334,-0.818511667745829
2.25,-0.817766085097939
2.2666666666666666,-0.856527628231391
2.283333333333333,-0.923898104066879
2.3,-1.0011067703576
2.3166666666666664,-1.08589115638935
2.3333333333333335,-1.18046895104219
2.35,-1.27270655334371
2.3666666666666667,-1.35675924548289
2.3833333333333333,-1.4384433719525
2.4,-1.52313650143491
2.4166666666666665,-1.61534279648263
2.433333333333333,-1.71060228316681
2.45,-1.80083038091756
2.466666666666667,-1.87863442447678
2.4833333333333334,-1.9513543575459
2.5,-2.03300832389719
2.5166666666666666,-2.13294344220191
2.533333333333333,-2.24189756776255
2.55,-2.34595034093984
2.5666666666666664,-2.43962659095139
2.5833333333333335,-2.52832169482606
2.6,-2.614397390048
2.6166666666666667,-2.7098126259332
2.6333333333333333,-2.80272486966918
2.65,-2.85969910914048
2.6666666666666665,-2.8539974220852
2.683333333333333,-2.81220836331935
2.7,-2.7807961457266
2.716666666666667,-2.77426680331433
2.7333333333333334,-2.77818097393191
2.75,-2.79559129725894
2.7666666666666666,-2.82927277557231
2.783333333333333,-2.87647327651217
2.8,-2.9319112597077
2.8166666666666664,-2.99961434973813
2.8333333333333335,-3.0755430808911
2.85,-3.14229471982872
2.8666666666666667,-3.19359482779401
2.8833333333333333,-3.23570414578006
2.9,-3.26997627069658
2.9166666666666665,-3.28552539947973
2.933333333333333,-3.29315845246639
2.95,-3.32678520959406
2.966666666666667,-3.41051688343936
2.9833333333333334,-3.52036978638963
3.0,-3.61805278304606
3.0166666666666666,-3.68675221341244
3.033333333333333,-3.7431808996714
3.05,-3.79927334608442
3.0666666666666664,-3.85531157581674
3.0833333333333335,-3.91098964496538
3.1,-3.97740508501939
3.1166666666666667,-4.06621564622875
3.1333333333333333,-4.16578071182081
3.15,-4.25226227305265
3.1666666666666665,-4.31397208286994
3.183333333333333,-4.36258609849708
3.2,-4.40930925426641
3.216666666666667,-4.4554784390764
3.2333333333333334,-4.49977286565059
3.25,-4.54941621228231
3.2666666666666666,-4.61003529349265
3.283333333333333,-4.67602032355575
3.3,-4.73772488469629
3.3166666666666664,-4.79386722558982
3.3333333333333335,-4.84571027071853
3.35,-4.88741490604374
3.3666666666666667,-4.91376910111192
3.3833333333333333,-4.92998335722274
3.4,-4.94586103665384
3.4166666666666665,-4.96487523496655
3.433333333333333,-4.98355220520724
3.4499999999999997,-5.00127462528175
3.466666666666667,-5.01949347290171
3.4833333333333334,-5.03675436284293
3.5,-5.04808629866885
3.5166666666666666,-5.08978025604526
3.533333333333333,-5.1255532851762
3.55,-5.04156514300347
3.5666666666666664,-4.80019888897475
3.5833333333333335,-4.43938472264382
3.6,-3.95872362858978
3.6166666666666667,-3.33382055457596
3.6333333333333333,-2.58988551324896
3.65,-1.80090135967096
3.6666666666666665,-1.04977707857696
3.683333333333333,-0.253886494293278
3.6999999999999997,0.761578036915854
3.716666666666667,2.11441737429084
3.7333333333333334,3.68788035290891
3.75,5.30350738949291
3.7666666666666666,6.91208756683527
3.783333333333333,8.5590028483866
3.8,10.2089425413963
3.8166666666666664,11.8364124016923
3.8333333333333335,13.4704956204344
3.85,15.1600848270649
3.8666666666666667,16.9188751453645
3.8833333333333333,18.7344672488528
3.9,20.6155648158106
3.9166666666666665,22.5685982119706
3.933333333333333,24.5871839561071
3.9499999999999997,26.660371303134
3.966666666666667,28.7922858306273
3.9833333333333334,30.9789004257805
4.0,33.1967139324198
4.016666666666667,35.4384745251102
4.033333333333333,37.7107925507784
4.05,40.0100374984103
4.066666666666666,42.3437242005346
4.083333333333333,44.7028954064471
4.1,47.0578785558633
4.116666666666666,49.411564106718
4.133333333333333,51.7586453430323
4.15,54.0577789351824
4.166666666666667,56.3029644710727
4.183333333333334,58.5029620056123
4.2,60.6405655260596
4.216666666666667,62.7157055387994
4.233333333333333,64.7350683145386
4.25,66.692261116519
4.266666666666667,68.5993765145787
4.283333333333333,70.4515730864426
4.3,72.2131051549144
4.316666666666666,73.8647999964244
4.333333333333333,75.4236960484512
4.35,76.903071704209
4.366666666666666,78.2945897535359
4.383333333333333,79.6002091835162
4.4,80.8486930149297
4.416666666666667,82.0498086443955
4.433333333333334,83.1918895390764
4.45,84.2725556623819
4.466666666666667,85.293728965556
4.483333333333333,86.2503661600088
4.5,87.1305723322129
4.516666666666667,87.9118000978294
4.533333333333333,88.6170973479161
4.55,89.3037670645441
4.566666666666666,89.9789589404749
4.583333333333333,90.6347847900275
4.6,91.3059494375179
4.616666666666666,92.0076178695474
4.633333333333333,92.7246684732713
4.65,93.4468137816397
4.666666666666667,94.1846195246873
4.683333333333334,94.9279166805904
4.7,95.6355663821861
4.716666666666667,96.3026913672918
4.733333333333333,96.934786219026
4.75,97.505743060405
4.766666666666667,97.9981339218021
4.783333333333333,98.4284783537893
4.8,98.8215791024787
4.816666666666666,99.1782131116487
4.833333333333333,99.4984700345305
4.85,99.8060323632212
4.866666666666666,100.109425113298
4.883333333333333,100.399419248348
4.9,100.672371401017
4.916666666666667,100.934034097162
4.933333333333334,101.178182090228
4.95,101.383052258879
4.966666666666667,101.536786589927
4.983333333333333,101.65095439262
5.0,101.738893914169
5.016666666666667,101.800886086847
5.033333333333333,101.836664554363
5.05,101.858648536831
5.066666666666666,101.868079137527
5.083333333333333,101.863710511545
5.1,101.854220672244
5.116666666666666,101.844650247152
5.133333333333333,101.829973056747
5.15,101.80377271976
5.166666666666667,101.763937999485
5.183333333333334,101.71256775998
5.2,101.649582744834
5.216666666666667,101.571854582689
5.233333333333333,101.482573228697
5.25,101.391136365592
5.266666666666667,101.29301748315
5.283333333333333,101.192745554991
5.3,101.113218669454
5.316666666666666,101.067902179764
5.333333333333333,101.043243370562
5.35,101.021596118718
5.366666666666666,100.996471784639
5.383333333333333,100.974365836917
5.4,100.957115777972
5.416666666666667,100.947868741251
5.433333333333334,100.943474611229
5.45,100.936302267059
5.466666666666667,100.921691569356
5.483333333333333,100.904302503851
5.5,100.890471012076
5.516666666666667,100.883423757449
5.533333333333333,100.879947625347
5.55,100.876702960505
5.566666666666666,100.874399280079
5.583333333333333,100.872316378266
5.6,100.864962093604
5.616666666666666,100.847514954382
5.633333333333333,100.824795145824
5.65,100.805782726882
5.666666666666667,100.795460743781
5.683333333333334,100.78886551102
5.7,100.780035840291
5.716666666666667,100.766411410892
5.733333333333333,100.750524223649
5.75,100.734035365418
5.766666666666667,100.716487598825
5.783333333333333,100.698358812398
5.8,100.682707336808
5.816666666666666,100.672898456716
5.833333333333333,100.665564644987
5.85,100.653649914933
5.866666666666666,100.6331100195
5.883333333333333,100.607987265062
5.9,100.583344377926
5.916666666666667,100.561444237642
5.933333333333334,100.540005128369
5.95,100.517271392889
5.966666666666667,100.493157371159
5.983333333333333,100.467750031831
6.0,100.439556586545
6.016666666666667,100.406439047754
6.033333333333333,100.370536900925
6.05,100.336774827966
6.066666666666666,100.307853265605
6.083333333333333,100.281077106102
6.1,100.253276494056
6.116666666666666,100.220502003329
6.133333333333333,100.186700621191
6.15,100.160549310492
6.166666666666667,100.147345426007
6.183333333333334,100.141803727584
6.2,100.136723888392
6.216666666666667,100.129497487877
6.233333333333333,100.122721699868
6.25,100.117003984546
6.266666666666667,100.113423876131
6.283333333333333,100.110919620244
6.3,100.106887886365
6.316666666666666,100.097483594118
6.333333333333333,100.086552704088
6.35,100.083010797512
6.366666666666666,100.090403558971
6.383333333333333,100.105167998058
6.4,100.125544250886
6.416666666666667,100.156145066448
6.433333333333334,100.192345054483
6.45,100.218530141922
6.466666666666667,100.229585602762
6.483333333333333,100.230628326726
6.5,100.221394493002
6.516666666666667,100.197628609865
6.533333333333333,100.16359137426
6.55,100.131794575115
6.566666666666666,100.10633546297
6.583333333333333,100.083121896387
6.6,100.062372258584
6.616666666666666,100.045523236972
6.633333333333333,100.031130283481
6.6499999999999995,100.015083622942
6.666666666666667,99.9970019205031
6.683333333333334,99.977271537864
6.7,99.952930947388
6.716666666666667,99.9204805439447
6.733333333333333,99.8834166704732
6.75,99.8492706125332
6.766666666666667,99.8226642236433
6.783333333333333,99.7989860281914
6.8,99.7719157200475
6.816666666666666,99.7377386571458
6.833333333333333,99.7001659247719
6.85,99.6640082929295
6.866666666666666,99.6307928131482
6.883333333333333,99.5989864460301
6.8999999999999995,99.5688165071397
6.916666666666667,99.5416857403284
6.933333333333334,99.5162011364702
6.95,99.4883991289617
6.966666666666667,99.4561054482886
6.983333333333333,99.4214891606241
7.0,99.3871028537925
7.016666666666667,99.3541451776303
7.033333333333333,99.3214279424394
7.05,99.2879198101128
7.066666666666666,99.2534517142964
7.083333333333333,99.218181362572
7.1,99.1815614121965
7.116666666666666,99.141892278053
7.133333333333333,99.1008729919083
7.1499999999999995,99.0630527143355
7.166666666666667,99.0302704363874
7.183333333333334,99.0006808476706
7.2,98.9733050430372
7.216666666666667,98.9486757887745
7.233333333333333,98.9262636612021
7.25,98.9034956791536
7.266666666666667,98.878476568255
7.283333333333333,98.8531008389066
7.3,98.8304797142019
7.316666666666666,98.8117249933079
7.333333333333333,98.7957283352421
7.35,98.7822704553111
7.366666666666666,98.771365667943
7.383333333333333,98.7629972451592
7.3999999999999995,98.7568998909487
7.416666666666667,98.7548402057073
7.433333333333334,98.7550550032053
7.45,98.7519855553172
7.466666666666667,98.741472944721
7.483333333333333,98.7276757163877
7.5,98.7175111138228
7.516666666666667,98.7135793751485
7.533333333333333,98.7132807181183
7.55,98.71572917783
7.566666666666666,98.7218384587408
7.583333333333333,98.7306893474584
7.6,98.7386458904341
7.616666666666666,98.7448524246593
7.633333333333333,98.7501671834395
7.6499999999999995,98.7535248257316
7.666666666666667,98.753198126963
7.683333333333334,98.7509129168919
7.7,98.750783245562
7.716666666666667,98.7557837307549
7.733333333333333,98.7629445702297
7.75,98.767461889833
7.766666666666667,98.7660937799459
7.783333333333333,98.7620778189156
7.8,98.7603285306352
7.816666666666666,98.763966585509
7.833333333333333,98.7698749722378
7.85,98.7736122490286
7.866666666666666,98.7726195179785
7.883333333333333,98.7694535379557
7.8999999999999995,98.7673469010422
7.916666666666667,98.7736935040342
7.933333333333334,98.7811221848199
7.95,98.7706935398357
7.966666666666667,98.7400273675035
7.983333333333333,98.6914799058933
8.0,98.613167759644
8.016666666666666,98.5252609139061
8.033333333333333,98.4081393790644
8.05,98.1892068225087
8.066666666666666,97.8429526440155
8.083333333333334,97.3943068966035
8.1,96.8456013394817
8.116666666666667,96.1913836496679
8.133333333333333,95.4387275809636
8.15,94.6081917753839
8.166666666666666,93.698966457789
8.183333333333334,92.7121808836412
8.2,91.6713662170297
8.216666666666667,90.5971373003069
8.233333333333333,89.4726341428616
8.25,88.2644881945556
8.266666666666666,86.9499406013487
8.283333333333333,85.551153511866
8.3,84.1008752405142
8.316666666666666,82.610888799668
8.333333333333334,81.0705403734613
8.35,79.4784570415763
8.366666666666667,77.8212344800519
8.383333333333333,76.1107165533767
8.4,74.3823149595125
8.416666666666666,72.6353995052341
8.433333333333334,70.8687710913563
8.45,69.1175614074679
8.466666666666667,67.3818716686573
8.483333333333333,65.6609626799562
8.5,63.9894535414928
8.516666666666666,62.3834690592403
8.533333333333333,60.8263230217362
8.55,59.3032718198282
8.566666666666666,57.8033589254163
8.583333333333334,56.3365593475126
8.6,54.9194515199799
8.616666666666667,53.5675101845203
8.633333333333333,52.2651960580772
8.65,50.9826949614762
8.666666666666666,49.705911958952
8.683333333333334,48.4496539217189
8.7,47.2278165425595
8.716666666666667,46.068989441463
8.733333333333333,44.9458634064314
8.75,43.7879794099352
8.766666666666666,42.5625752334937
8.783333333333333,41.3022037405327
8.8,40.0338522900867
8.816666666666666,38.7654545814824
8.833333333333334,37.4890709647616
8.85,36.2075097396785
8.866666666666667,34.9359794852076
8.883333333333333,33.658697136785
8.9,32.3317442994835
8.916666666666666,30.9244830210891
8.933333333333334,29.4672821555343
8.95,28.0074034157815
8.966666666666667,26.5406043941861
8.983333333333333,25.069681586657
9.0,23.6531379565372
9.016666666666666,22.2993152594124
9.033333333333333,21.0008454996534
9.05,19.7935180422944
9.066666666666666,18.7022587384548
9.083333333333334,17.7023650265231
9.1,16.7547345117377
9.116666666666667,15.873623076093
9.133333333333333,15.0443726685764
9.15,14.1841096519389
9.166666666666666,13.246132281313
9.183333333333334,12.2762019417422
9.2,11.3307079021582
9.216666666666667,10.4137674575185
9.233333333333333,9.52200483258239
9.25,8.70141671266537
9.266666666666666,8.00566011709727
9.283333333333333,7.38185895730682
9.3,6.71568884357885
9.316666666666666,5.93913496633709
9.333333333333334,5.1187258905967
9.35,4.34208834888712
9.366666666666667,3.63867751077509
9.383333333333333,2.97955402550487
9.4,2.36557286201263
9.416666666666666,1.76545625726496
9.433333333333334,1.21058624037155
9.45,0.796336025298034
9.466666666666667,0.607095131588187
9.483333333333333,0.559364207898503
9.5,0.497008283455169
9.516666666666666,0.354351401353558
9.533333333333333,0.197005822838862
9.55,0.0658895267032994
9.566666666666666,-0.0184100311816212
9.583333333333334,-0.0763528476916415
9.6,-0.128521876486121
9.616666666666667,-0.174199295689671
9.633333333333333,-0.214045651424834
9.65,-0.270798978673264
9.666666666666666,-0.365533967379834
9.683333333333334,-0.477352213254818
9.7,-0.56592795843006
9.716666666666667,-0.611228282738405
9.733333333333333,-0.633122693712453
9.75,-0.651068732502899
9.766666666666666,-0.669477855780204
9.783333333333333,-0.684138280090025
9.8,-0.701567305739374
9.816666666666666,-0.721784118777127
9.833333333333334,-0.744706483444206
9.85,-0.776629912171556
9.866666666666667,-0.81885387658262
9.883333333333333,-0.870092284645312
9.9,-0.932772841085565
9.916666666666666,-1.01266085340529
9.933333333333334,-1.10396211580128
9.95,-1.19174946933235
9.966666666666667,-1.27535522979783
9.983333333333333,-1.35539803939029
10.0,-1.41891282590073
10.016666666666666,-1.45635800734921
10.033333333333333,-1.4773172323278
10.05,-1.4975496285246
10.066666666666666,-1.52422130804231
10.083333333333334,-1.55018595776237
10.1,-1.56971354034503
10.116666666666667,-1.57951066836309
10.133333333333333,-1.58285154117597
10.15,-1.58384802579315
10.166666666666666,-1.57585898017059
10.183333333333334,-1.56554947734047
10.2,-1.57696640239844
10.216666666666667,-1.62616165379512
10.233333333333333,-1.69707338459496
10.25,-1.76554458827017
10.266666666666666,-1.82666472584624
10.283333333333333,-1.88534431426535
10.3,-1.93213170792946
10.316666666666666,-1.95802849231108
10.333333333333334,-1.97201895806513
10.35,-1.99162054194239
10.366666666666667,-2.02655649492145
10.383333333333333,-2.06711835361347
10.4,-2.10165528105411
10.416666666666666,-2.11954120015437
10.433333333333334,-2.13136881896821
10.45,-2.15729894703721
10.466666666666667,-2.20688351108646
10.483333333333333,-2.27063698477663
10.5,-2.34011628542116
10.516666666666666,-2.4189132440666
10.533333333333333,-2.50336724917421
10.55,-2.57410379862016
