time,angle
0.0,-1.46886787697908
0.016666666666666666,-1.42097541021051
0.03333333333333333,-1.37356256571021
0.05,-1.32881752888633
0.06666666666666667,-1.28333195416641
0.08333333333333333,-1.24066940362315
0.1,-1.21326989658429
0.11666666666666667,-1.20735096172398
0.13333333333333333,-1.21596739849559
0.15,-1.23172001494676
0.16666666666666666,-1.2578369218389
0.18333333333333332,-1.2906843816674
0.2,-1.31263995400756
0.21666666666666667,-1.29656808215107
0.23333333333333334,-1.26890263392953
0.25,-1.29280463229563
0.26666666666666666,-1.39227418678272
0.2833333333333333,-1.54367027927161
0.3,-1.73902813483704
0.31666666666666665,-1.97955357740162
0.3333333333333333,-2.26417077649476
0.35,-2.58129481351384
0.36666666666666664,-2.9497162439686
0.3833333333333333,-3.35092159441771
0.4,-3.7172096107444
0.4166666666666667,-4.02056515149783
0.43333333333333335,-4.28981718736285
0.45,-4.54193398345337
0.4666666666666667,-4.78747454732834
0.48333333333333334,-5.01566524808753
0.5,-5.21126610061068
0.5166666666666666,-5.34933283641721
0.5333333333333333,-5.4563604006688
0.55,-5.59308459115447
0.5666666666666667,-5.7878084177447
0.5833333333333334,-6.01080216642051
0.6,-6.23477213985107
0.6166666666666667,-6.45331006731445
0.6333333333333333,-6.67278306262407
0.65,-6.88517522035971
0.6666666666666666,-7.10515309053302
0.6833333333333333,-7.31733137590719
0.7,-7.46924290212544
0.7166666666666667,-7.52481904520769
0.7333333333333333,-7.52051538781624
0.75,-7.51302969570548
0.7666666666666666,-7.52682967642854
0.7833333333333333,-7.53726052154166
0.8,-7.52736097422801
0.8166666666666667,-7.48608014425164
0.8333333333333334,-7.4244929347197
0.85,-7.35889416394852
0.8666666666666667,-7.28309683616361
0.8833333333333333,-7.20331080899725
0.9,-7.15470012294771
0.9166666666666666,-7.16880224755893
0.9333333333333333,-7.2149439469335
0.95,-7.23465020888468
0.9666666666666667,-7.20470096122614
0.9833333333333333,-7.147851862672
1.0,-7.07379414219453
1.0166666666666666,-7.00336875073341
1.0333333333333332,-6.91601613455118
1.05,-6.75764998167841
1.0666666666666667,-6.50826183630653
1.0833333333333333,-6.18438202595142
1.1,-5.78723658274973
1.1166666666666667,-5.30191094356657
1.1333333333333333,-4.74557494472773
1.15,-4.1684434045456
1.1666666666666667,-3.58844314072838
1.1833333333333333,-2.98703210060556
1.2,-2.35938161798097
1.2166666666666666,-1.71076431273295
1.2333333333333334,-1.03728293717633
1.25,-0.320293795040613
1.2666666666666666,0.466806821146793
1.2833333333333332,1.29675171565352
1.3,2.10899857249462
1.3166666666666667,2.88164669898532
1.3333333333333333,3.63838350602948
1.35,4.38758393596953
1.3666666666666667,5.14037954870881
1.3833333333333333,5.88528623292764
1.4,6.59685035902669
1.4166666666666667,7.27069167155855
1.4333333333333333,7.91167945651201
1.45,8.5091903349288
1.4666666666666666,9.08485100037648
1.4833333333333334,9.61614906240498
1.5,10.0275476575164
1.5166666666666666,10.2377638189182
1.5333333333333332,10.3282233926551
1.55,10.4690422206252
1.5666666666666667,10.7422035223482
1.5833333333333333,11.066041207182
1.6,11.3655895321367
1.6166666666666667,11.6209712586912
1.6333333333333333,11.8523747681274
1.65,12.0445404247382
1.6666666666666667,12.1973116214867
1.6833333333333333,12.3098653341202
1.7,12.365873524295
1.7166666666666666,12.3710363562748
1.7333333333333334,12.3195315985628
1.75,12.1783666764011
1.7666666666666666,11.9193859276358
1.7833333333333332,11.5706742396698
1.8,11.1838056936299
1.8166666666666667,10.785166523346
1.8333333333333333,10.3486468265925
1.8499999999999999,9.84720731188205
1.8666666666666667,9.28737239526862
1.8833333333333333,8.66288209316693
1.9,7.92752924667745
1.9166666666666667,7.04784089006694
1.9333333333333333,6.05672453005564
1.95,5.0074786996028
1.9666666666666666,3.88857879545086
1.9833333333333334,2.70982786389412
2.0,1.5570362137576
2.0166666666666666,0.442859083876569
2.033333333333333,-0.646817560128894
2.05,-1.66540979127693
2.0666666666666664,-2.58975502190942
2.0833333333333335,-3.44343980356148
2.1,-4.24913198234743
2.1166666666666667,-4.99412826451757
2.1333333333333333,-5.69048110076971
2.15,-6.39756942534275
2.1666666666666665,-7.15643751003363
2.183333333333333,-7.92537409083255
2.2,-8.63958316934317
2.216666666666667,-9.27812499031855
2.2333333333333334,-9.86119874551774
2.25,-10.3855970284882
2.2666666666666666,-10.8301175874345
2.283333333333333,-11.2150065375635
2.3,-11.5994111291725
2.3166666666666664,-12.0231590464267
2.3333333333333335,-12.446074844959
2.35,-12.8076916504619
2.3666666666666667,-13.0830890101244
2.3833333333333333,-13.297080772747
2.4,-13.4639754825378
2.4166666666666665,-13.5731758511877
2.433333333333333,-13.6352538514276
2.45,-13.6962548734593
2.466666666666667,-13.7768735107475
2.4833333333333334,-13.8561784643196
2.5,-13.9175938871269
2.5166666666666666,-13.9470818525902
2.533333333333333,-13.9582240578941
2.55,-13.9760020917783
2.5666666666666664,-14.0145225191618
2.5833333333333335,-14.0597828147826
2.6,-14.0946858573097
2.6166666666666667,-14.1085809060297
2.6333333333333333,-14.1119892098029
2.65,-14.1194633147173
2.6666666666666665,-14.1320191344287
2.683333333333333,-14.1484625909811
2.7,-14.1801417518031
2.716666666666667,-14.2392279004461
2.7333333333333334,-14.3136493948989
2.75,-14.3784573583478
2.7666666666666666,-14.4207773701124
2.783333333333333,-14.4534037107957
2.8,-14.4898943253233
2.8166666666666664,-14.5412154940257
2.8333333333333335,-14.5964016847988
2.85,-14.636141060491
2.8666666666666667,-14.6531540666126
2.8833333333333333,-14.6546644686266
2.9,-14.6431307621655
2.9166666666666665,-14.6092710454885
2.933333333333333,-14.5623315958504
2.95,-14.5326795958476
2.966666666666667,-14.5333405066337
2.9833333333333334,-14.5513903755187
3.0,-14.5783218605887
3.0166666666666666,-14.613344492212
3.033333333333333,-14.6572383228817
3.05,-14.703851882198
3.0666666666666664,-14.7530401004239
3.0833333333333335,-14.8049538377211
3.1,-14.8538918680106
3.1166666666666667,-14.8994405395775
3.1333333333333333,-14.9419989977916
3.15,-14.9771025278825
3.1666666666666665,-14.9986432750421
3.183333333333333,-15.0127556760276
3.2,-15.0333367219941
3.216666666666667,-15.0700068434166
3.2333333333333334,-15.113107501128
3.25,-15.1476340176262
3.2666666666666666,-15.1644211658026
3.283333333333333,-15.1726575163857
3.3,-15.1848957275548
3.3166666666666664,-15.2051358617867
3.3333333333333335,-15.229382295479
3.35,-15.2581962981957
3.3666666666666667,-15.2934781715719
3.3833333333333333,-15.3333220771598
3.4,-15.37258677789
3.4166666666666665,-15.4102480627932
3.433333333333333,-15.447340736106
3.4499999999999997,-15.4818134328216
3.466666666666667,-15.5143828164168
3.4833333333333334,-15.5443372967464
3.5,-15.5674718716149
3.5166666666666666,-15.5811636734063
3.533333333333333,-15.5880275047078
3.55,-15.5917089601074
3.5666666666666664,-15.5917893372087
3.5833333333333335,-15.5886969773673
3.6,-15.5873445105719
3.6166666666666667,-15.5901193514644
3.6333333333333333,-15.5946241218596
3.65,-15.5985860604938
3.6666666666666665,-15.5999583425946
3.683333333333333,-15.6007816679386
3.6999999999999997,-15.6049192518441
3.716666666666667,-15.6137907655733
3.7333333333333334,-15.6259799936477
3.75,-15.6411006642449
3.7666666666666666,-15.6608171425165
3.783333333333333,-15.6834719526778
3.8,-15.703692487577
3.8166666666666664,-15.7195545818395
3.8333333333333335,-15.732979515862
3.85,-15.7443577593016
3.8666666666666667,-15.7525159932143
3.8833333333333333,-15.7586204793206
3.9,-15.7665772652544
3.9166666666666665,-15.7798344941363
3.933333333333333,-15.7949532905144
3.9499999999999997,-15.8055111434742
3.966666666666667,-15.8077695127564
3.9833333333333334,-15.8054640818829
4.0,-15.8033797340278
4.016666666666667,-15.8055063611808
4.033333333333333,-15.8078587693348
4.05,-15.8032577876923
4.066666666666666,-15.7846272630137
4.083333333333333,-15.7590442351081
4.1,-15.7405586524908
4.116666666666666,-15.7349287857162
4.133333333333333,-15.7364039448398
4.15,-15.7417648032051
4.166666666666667,-15.7515474759126
4.183333333333334,-15.7652031946054
4.2,-15.7778808194254
4.216666666666667,-15.7898850722458
4.233333333333333,-15.8009097378378
4.25,-15.8051925550739
4.266666666666667,-15.795802598639
4.283333333333333,-15.7796719490707
4.3,-15.771833078909
4.316666666666666,-15.7826580685761
4.333333333333333,-15.8017658605381
4.35,-15.8130677641899
4.366666666666666,-15.806938927979
4.383333333333333,-15.7930135104753
4.4,-15.7840984569101
4.416666666666667,-15.7866820469878
4.433333333333334,-15.7942685904194
4.45,-15.800191512914
4.466666666666667,-15.8009530126385
4.483333333333333,-15.8000532918713
4.5,-15.8013293291786
4.516666666666667,-15.8068104333468
4.533333333333333,-15.814467816401
4.55,-15.8220519878937
4.566666666666666,-15.8295878505487
4.583333333333333,-15.8370491807933
4.6,-15.842111804771
4.616666666666666,-15.8421833150616
4.633333333333333,-15.839859766051
4.65,-15.8406007625717
4.666666666666667,-15.8486360323996
4.683333333333334,-15.859734383161
4.7,-15.8666676246268
4.716666666666667,-15.8723164916802
4.733333333333333,-15.8738046815817
4.75,-15.8552736933429
4.766666666666667,-15.8266744161937
4.783333333333333,-15.7780932169474
4.8,-15.6639153057876
4.816666666666666,-15.4823973796846
4.833333333333333,-15.2354333012648
4.85,-14.8827031054111
4.866666666666666,-14.3959285133358
4.883333333333333,-13.8027571986019
4.9,-13.1465634682308
4.916666666666667,-12.4322500454369
4.933333333333334,-11.6540352255318
4.95,-10.84000813304
4.966666666666667,-10.0152797995256
4.983333333333333,-9.15543218510917
5.0,-8.21458831617691
5.016666666666667,-7.17839131741483
5.033333333333333,-6.06087969353334
5.05,-4.85797965391116
5.066666666666666,-3.55001298450745
5.083333333333333,-2.15530910055238
5.1,-0.72640225235739
5.116666666666666,0.718420223476868
5.133333333333333,2.19869038928316
5.15,3.71868214350436
5.166666666666667,5.28452509691714
5.183333333333334,6.89168510839139
5.2,8.52778732597446
5.216666666666667,10.189181058824
5.233333333333333,11.8791589254663
5.25,13.595188525914
5.266666666666667,15.3387136016806
5.283333333333333,17.1084136479659
5.3,18.8977337998709
5.316666666666666,20.7063749085917
5.333333333333333,22.5346702543122
5.35,24.3770558881295
5.366666666666666,26.2314551691322
5.383333333333333,28.1000920993445
5.4,29.9836699897234
5.416666666666667,31.8952011361329
5.433333333333334,33.8213538162034
5.45,35.72308446873
5.466666666666667,37.5820960101795
5.483333333333333,39.4159501106385
5.5,41.2393387367746
5.516666666666667,43.0691492151861
5.533333333333333,44.88809684301
5.55,46.6592720427604
5.566666666666666,48.3828909837799
5.583333333333333,50.0571410950507
5.6,51.6417777423326
5.616666666666666,53.1018074837607
5.633333333333333,54.4718631023401
5.65,55.8165845082047
5.666666666666667,57.1607447770437
5.683333333333334,58.4797305979308
5.7,59.7638269428957
5.716666666666667,61.0011375957285
5.733333333333333,62.2030044519178
5.75,63.3942576343651
5.766666666666667,64.5854932604523
5.783333333333333,65.7657219739985
5.8,66.9276071943266
5.816666666666666,68.0737255917092
5.833333333333333,69.2017287173677
5.85,70.2971133902884
5.866666666666666,71.3532544560365
5.883333333333333,72.3770468061557
5.9,73.3744539414883
5.916666666666667,74.3496523461839
5.933333333333334,75.2991127988601
5.95,76.2171621139997
5.966666666666667,77.0950350187023
5.983333333333333,77.9414881488366
6.0,78.7769460299042
6.016666666666667,79.6066271415022
6.033333333333333,80.4254305307062
6.05,81.2383259212286
6.066666666666666,82.0542367671945
6.083333333333333,82.8642838354818
6.1,83.6467254107414
6.116666666666666,84.3982999564113
6.133333333333333,85.1223607069075
6.15,85.8070172061109
6.166666666666667,86.4460092933236
6.183333333333334,87.0454606722719
6.2,87.6119266677687
6.216666666666667,88.1360566184567
6.233333333333333,88.6268627464361
6.25,89.118667445063
6.266666666666667,89.6316669569571
6.283333333333333,90.1459451124636
6.3,90.6358037821323
6.316666666666666,91.0935703633726
6.333333333333333,91.5268458014122
6.35,91.9326761452864
6.366666666666666,92.3028282573195
6.383333333333333,92.6454062572656
6.4,92.9819998515181
6.416666666666667,93.3202995992213
6.433333333333334,93.6527246627589
6.45,93.9779895912466
6.466666666666667,94.292714607747
6.483333333333333,94.6002850718028
6.5,94.9095267391071
6.516666666666667,95.2394034932116
6.533333333333333,95.5709893556068
6.55,95.8561864930635
6.566666666666666,96.0755490395529
6.583333333333333,96.2483810686148
6.6,96.3846497740966
6.616666666666666,96.4897261505734
6.633333333333333,96.5581946270719
6.6499999999999995,96.5839304076567
6.666666666666667,96.5582166672032
6.683333333333334,96.4898853916264
6.7,96.3991356239003
6.716666666666667,96.2913597252059
6.733333333333333,96.1611700025339
6.75,96.0125596933729
6.766666666666667,95.8467457801335
6.783333333333333,95.6625404280935
6.8,95.4603503933227
6.816666666666666,95.2354632704697
6.833333333333333,94.9926975916243
6.85,94.7466875124463
6.866666666666666,94.4935788274919
6.883333333333333,94.2370947101474
6.8999999999999995,94.003162719351
6.916666666666667,93.8007561012162
6.933333333333334,93.6208721382037
6.95,93.4625090669808
6.966666666666667,93.3245064354093
6.983333333333333,93.2080248713103
7.0,93.1155500351842
7.016666666666667,93.0502399895417
7.033333333333333,93.008960739402
7.05,92.9847705465118
7.066666666666666,92.9932771962245
7.083333333333333,93.0189555622953
7.1,93.0082855415979
7.116666666666666,92.9488869321131
7.133333333333333,92.8533874494393
7.1499999999999995,92.7056679699382
7.166666666666667,92.4962369969359
7.183333333333334,92.2343662339432
7.2,91.9320249088536
7.216666666666667,91.5978857175813
7.233333333333333,91.2233274931261
7.25,90.7944621072395
7.266666666666667,90.3047494566806
7.283333333333333,89.7608103259657
7.3,89.1684519457479
7.316666666666666,88.5297776463665
7.333333333333333,87.8426517124769
7.35,87.1065420238364
7.366666666666666,86.3178512964883
7.383333333333333,85.4803510861199
7.3999999999999995,84.6044244029749
7.416666666666667,83.6908040685559
7.433333333333334,82.7383686280749
7.45,81.7543610675467
7.466666666666667,80.7522887642902
7.483333333333333,79.7179700429732
7.5,78.617145978964
7.516666666666667,77.4261224951252
7.533333333333333,76.1680550556195
7.55,74.8789796026256
7.566666666666666,73.5681360005328
7.583333333333333,72.2258314553385
7.6,70.859564149675
7.616666666666666,69.4603218493319
7.633333333333333,68.0360171293281
7.6499999999999995,66.6198778970366
7.666666666666667,65.2327879743577
7.683333333333334,63.8544785021215
7.7,62.4570251169005
7.716666666666667,61.0260901682896
7.733333333333333,59.576623823347
7.75,58.1245295460921
7.766666666666667,56.6698803802789
7.783333333333333,55.2133662470863
7.8,53.772021511092
7.816666666666666,52.3499322274765
7.833333333333333,50.9444401169682
7.85,49.5624296425393
7.866666666666666,48.2140593937468
7.883333333333333,46.8896646009614
7.8999999999999995,45.5663598921171
7.916666666666667,44.2399445449747
7.933333333333334,42.9156556760623
7.95,41.58467174072
7.966666666666667,40.2437376951347
7.983333333333333,38.8962969123289
8.0,37.5433323851086
8.016666666666666,36.183156429516
8.033333333333333,34.8179762525462
8.05,33.4544168023392
8.066666666666666,32.0825938596062
8.083333333333334,30.7123832318779
8.1,29.3792925129099
8.116666666666667,28.106600396994
8.133333333333333,26.8695390110044
8.15,25.6317437434652
8.166666666666666,24.3844020413926
8.183333333333334,23.1366052436546
8.2,21.8801669321715
8.216666666666667,20.6107226516161
8.233333333333333,19.334038613303
8.25,18.0579511123165
8.266666666666666,16.7781377577953
8.283333333333333,15.5017103704112
8.3,14.2516591951754
8.316666666666666,13.0171050379742
8.333333333333334,11.806005033026
8.35,10.6666209420758
8.366666666666667,9.63236575139994
8.383333333333333,8.66575699992143
8.4,7.70997421796171
8.416666666666666,6.75713332198634
8.433333333333334,5.81541135103485
8.45,4.85418933957409
8.466666666666667,3.85471673318327
8.483333333333333,2.83682140099566
8.5,1.82793774379542
8.516666666666666,0.818490776620049
8.533333333333333,-0.181382088963792
8.55,-1.11580881688579
8.566666666666666,-1.94672136462803
8.583333333333334,-2.71362222329632
8.6,-3.4780005186209
8.616666666666667,-4.26661225173954
8.633333333333333,-5.05438164173095
8.65,-5.82462758531674
8.666666666666666,-6.58043350188957
8.683333333333334,-7.31887441051012
8.7,-8.01380809419939
8.716666666666667,-8.66768378736868
8.733333333333333,-9.27866172121877
8.75,-9.81405079432328
8.766666666666666,-10.2430506492856
8.783333333333333,-10.5962768172656
8.8,-10.933256467106
8.816666666666666,-11.2786671080661
8.833333333333334,-11.608479418651
8.85,-11.9092346472896
8.866666666666667,-12.1776534885539
8.883333333333333,-12.4168356092597
8.9,-12.6225239653468
8.916666666666666,-12.7816547006368
8.933333333333334,-12.9067776300906
8.95,-13.0320746170534
8.966666666666667,-13.1727766114957
8.983333333333333,-13.313485699416
9.0,-13.4426077931527
9.016666666666666,-13.5583297022252
9.033333333333333,-13.6623808539013
9.05,-13.7485068707291
9.066666666666666,-13.820255892935
9.083333333333334,-13.8740246860715
9.1,-13.8928287789944
9.116666666666667,-13.887499062107
9.133333333333333,-13.8471927102592
9.15,-13.7224324719171
9.166666666666666,-13.4953528971811
9.183333333333334,-13.1839683889282
9.2,-12.7925823652285
9.216666666666667,-12.3272182876524
9.233333333333333,-11.7818077051899
9.25,-11.1423260075772
9.266666666666666,-10.3702143903324
9.283333333333333,-9.50350911665212
9.3,-8.64333356689718
9.316666666666666,-7.85268882666724
9.333333333333334,-7.06887238487307
9.35,-6.20442645633214
9.366666666666667,-5.22600093624495
9.383333333333333,-4.16590006349586
9.4,-3.03430224012666
9.416666666666666,-1.83873408633086
9.433333333333334,-0.569552698472705
9.45,0.789568707022908
9.466666666666667,2.26413607630976
9.483333333333333,3.83211005726747
9.5,5.43747681433312
9.516666666666666,7.06746601866333
9.533333333333333,8.73469448252807
9.55,10.4203399037626
9.566666666666666,12.1224242675039
9.583333333333334,13.8441903388793
9.6,15.5744138764175
9.616666666666667,17.3140656176213
9.633333333333333,19.0616698399776
9.65,20.8016855465845
9.666666666666666,22.5222012628382
9.683333333333334,24.2346658100682
9.7,25.958742584066
9.716666666666667,27.701222276506
9.733333333333333,29.4555459939885
9.75,31.2216594680295
9.766666666666666,32.9998514613956
9.783333333333333,34.7900225436478
9.8,36.591391375072
9.816666666666666,38.4146713771858
9.833333333333334,40.2488664867415
9.85,42.0599527380242
9.866666666666667,43.8213466168943
9.883333333333333,45.5577931395996
9.9,47.3116226137342
9.916666666666666,49.1086140330308
9.933333333333334,50.9209087070323
9.95,52.7102566932926
9.966666666666667,54.4669690803657
9.983333333333333,56.198848007441
10.0,57.8941819240469
10.016666666666666,59.5517583415207
10.033333333333333,61.1720253295876
10.05,62.7462481837654
10.066666666666666,64.2728604077344
10.083333333333334,65.7537648143286
10.1,67.1859750106486
10.116666666666667,68.5737449818874
10.133333333333333,69.9141009990017
10.15,71.1934161060602
10.166666666666666,72.4100688571956
10.183333333333334,73.5666452781406
10.2,74.6554141881643
10.216666666666667,75.6545461633331
10.233333333333333,76.5859456896355
10.25,77.5072520823861
10.266666666666666,78.4457846886255
10.283333333333333,79.3744361963007
10.3,80.2691981106847
10.316666666666666,81.1100286267338
10.333333333333334,81.917201329368
10.35,82.7271548587701
10.366666666666667,83.5500833787376
10.383333333333333,84.3762006077387
10.4,85.2116764491411
10.416666666666666,86.0682150563487
10.433333333333334,86.9339363328461
10.45,87.7793834903448
10.466666666666667,88.5777054690212
10.483333333333333,89.355712366461
10.5,90.1643490212759
10.516666666666666,91.0620155141978
10.533333333333333,91.9901228359659
10.55,92.8240213050931
10.566666666666666,93.5198994360509
10.583333333333334,94.121250968589
